Seconds,0
0.0,0.840255692429818
0.0078125,0.8110625776235751
0.015625,0.8305246541610704
0.0234375,0.8110625776235751
0.03125,0.8110625776235751
0.0390625,0.8207936158923228
0.046875,0.840255692429818
0.0546875,0.8013315393548276
0.0625,0.8305246541610704
0.0703125,0.7916005010860799
0.078125,0.840255692429818
0.0859375,0.8305246541610704
0.09375,0.8110625776235751
0.1015625,0.840255692429818
0.109375,0.8013315393548276
0.1171875,0.8597177689673132
0.125,0.8305246541610704
0.1328125,0.8597177689673132
0.140625,0.8305246541610704
0.1484375,0.840255692429818
0.15625,0.8305246541610704
0.1640625,0.840255692429818
0.171875,0.8207936158923228
0.1796875,0.7916005010860799
0.1875,0.8013315393548276
0.1953125,0.7818694628173324
0.203125,0.7818694628173324
0.2109375,0.6845590801298563
0.21875,1.0543385343422653
0.2265625,-0.2593516319386611
0.234375,-0.6583242009573128
0.2421875,-0.7653656219135365
0.25,-0.7945587367197793
0.2578125,-0.823751851526022
0.265625,-0.823751851526022
0.2734375,-0.7848276984510316
0.28125,-0.8140208132572745
0.2890625,-0.8140208132572745
0.296875,-0.8334828897947697
0.3046875,-0.7848276984510316
0.3125,-0.823751851526022
0.3203125,-0.8042897749885268
0.328125,-0.8042897749885268
0.3359375,-0.823751851526022
0.34375,-0.7945587367197793
0.3515625,-0.8042897749885268
0.359375,-0.7750966601822841
0.3671875,-0.8140208132572745
0.375,-0.7945587367197793
0.3828125,-0.8140208132572745
0.390625,-0.7750966601822841
0.3984375,-0.7945587367197793
0.40625,-0.8042897749885268
0.4140625,-0.823751851526022
0.421875,-0.7945587367197793
0.4296875,-0.7945587367197793
0.4375,-0.7945587367197793
0.4453125,-0.7945587367197793
0.453125,-0.823751851526022
0.4609375,-0.7848276984510316
0.46875,-0.7945587367197793
0.4765625,-0.7750966601822841
0.484375,-0.8042897749885268
0.4921875,-0.7750966601822841
0.5,-0.7945587367197793
0.5078125,-0.7361725071072936
0.515625,-0.7653656219135365
0.5234375,-0.7653656219135365
0.53125,-0.7750966601822841
0.5390625,-0.7653656219135365
0.546875,-0.7556345836447889
0.5546875,-0.7459035453760413
0.5625,-0.7556345836447889
0.5703125,-0.7653656219135365
0.578125,-0.7653656219135365
0.5859375,-0.7459035453760413
0.59375,-0.7361725071072936
0.6015625,-0.7556345836447889
0.609375,-0.7361725071072936
0.6171875,-0.7750966601822841
0.625,-0.6972483540323032
0.6328125,-0.7459035453760413
0.640625,-0.7167104305697984
0.6484375,-0.7361725071072936
0.65625,-0.7264414688385461
0.6640625,-0.7167104305697984
0.671875,-0.6972483540323032
0.6796875,-0.7069793923010509
0.6875,-0.677786277494808
0.6953125,-0.6875173157635557
0.703125,-0.6194000478823224
0.7109375,-0.5999379713448272
0.71875,-0.9016001576760029
0.7265625,0.42182104687367106
0.734375,0.7818694628173324
0.7421875,0.8597177689673132
0.75,0.8986419220423036
0.7578125,0.8986419220423036
0.765625,0.9083729603110512
0.7734375,0.8986419220423036
0.78125,0.888910883773556
0.7890625,0.9083729603110512
0.796875,0.8791798455048084
0.8046875,0.8597177689673132
0.8125,0.8597177689673132
0.8203125,0.8499867306985656
0.828125,0.8791798455048084
0.8359375,0.8694488072360608
0.84375,0.840255692429818
0.8515625,0.8499867306985656
0.859375,0.7916005010860799
0.8671875,0.8597177689673132
0.875,0.8013315393548276
0.8828125,0.8305246541610704
0.890625,0.7818694628173324
0.8984375,0.7916005010860799
0.90625,0.7818694628173324
0.9140625,0.7916005010860799
0.921875,0.7721384245485847
0.9296875,0.7916005010860799
0.9375,0.7624073862798372
0.9453125,0.7818694628173324
0.953125,0.7721384245485847
0.9609375,0.7916005010860799
0.96875,0.7721384245485847
0.9765625,0.7818694628173324
0.984375,0.7332142714735944
0.9921875,0.8207936158923228
1.0,0.7624073862798372
1.0078125,0.7624073862798372
1.015625,0.7624073862798372
1.0234375,0.742945309742342
1.03125,0.7721384245485847
1.0390625,0.7818694628173324
1.046875,0.7721384245485847
1.0546875,0.7818694628173324
1.0625,0.7526763480110896
1.0703125,0.7721384245485847
1.078125,0.7721384245485847
1.0859375,0.7818694628173324
1.09375,0.7721384245485847
1.1015625,0.7624073862798372
1.109375,0.742945309742342
1.1171875,0.7916005010860799
1.125,0.7624073862798372
1.1328125,0.7624073862798372
1.140625,0.7624073862798372
1.1484375,0.742945309742342
1.15625,0.7624073862798372
1.1640625,0.7721384245485847
1.171875,0.7526763480110896
1.1796875,0.7332142714735944
1.1875,0.7040211566673515
1.1953125,0.7137521949360992
1.203125,0.6845590801298563
1.2109375,0.7526763480110896
1.21875,0.7916005010860799
1.2265625,-0.30800682328239914
1.234375,-0.8042897749885268
1.2421875,-0.7945587367197793
1.25,-0.8821380811385077
1.2578125,-0.8529449663322649
1.265625,-0.8724070428697601
1.2734375,-0.8626760046010125
1.28125,-0.8626760046010125
1.2890625,-0.8334828897947697
1.296875,-0.8626760046010125
1.3046875,-0.8724070428697601
1.3125,-0.8821380811385077
1.3203125,-0.8626760046010125
1.328125,-0.8626760046010125
1.3359375,-0.8529449663322649
1.34375,-0.8821380811385077
1.3515625,-0.8432139280635172
1.359375,-0.9016001576760029
1.3671875,-0.823751851526022
1.375,-0.8626760046010125
1.3828125,-0.8529449663322649
1.390625,-0.8626760046010125
1.3984375,-0.8529449663322649
1.40625,-0.8626760046010125
1.4140625,-0.8334828897947697
1.421875,-0.8529449663322649
1.4296875,-0.8432139280635172
1.4375,-0.8529449663322649
1.4453125,-0.8432139280635172
1.453125,-0.8334828897947697
1.4609375,-0.8334828897947697
1.46875,-0.8432139280635172
1.4765625,-0.823751851526022
1.484375,-0.8432139280635172
1.4921875,-0.7848276984510316
1.5,-0.8140208132572745
1.5078125,-0.8042897749885268
1.515625,-0.8042897749885268
1.5234375,-0.8042897749885268
1.53125,-0.7848276984510316
1.5390625,-0.7945587367197793
1.546875,-0.7750966601822841
1.5546875,-0.8042897749885268
1.5625,-0.7848276984510316
1.5703125,-0.8140208132572745
1.578125,-0.7459035453760413
1.5859375,-0.7945587367197793
1.59375,-0.7848276984510316
1.6015625,-0.7848276984510316
1.609375,-0.7848276984510316
1.6171875,-0.7653656219135365
1.625,-0.7653656219135365
1.6328125,-0.7653656219135365
1.640625,-0.7750966601822841
1.6484375,-0.7750966601822841
1.65625,-0.7556345836447889
1.6640625,-0.7264414688385461
1.671875,-0.7167104305697984
1.6796875,-0.7264414688385461
1.6875,-0.6972483540323032
1.6953125,-0.7167104305697984
1.703125,-0.6388621244198176
1.7109375,-0.6194000478823224
1.71875,-0.9989105403634789
1.7265625,0.38289689379868064
1.734375,0.7916005010860799
1.7421875,0.8791798455048084
1.75,0.9375660751172941
1.7578125,0.9181039985797989
1.765625,0.9278350368485464
1.7734375,0.9278350368485464
1.78125,0.9278350368485464
1.7890625,0.9472971133860416
1.796875,0.9570281516547893
1.8046875,0.9472971133860416
1.8125,0.9375660751172941
1.8203125,0.8986419220423036
1.828125,0.9472971133860416
1.8359375,0.9083729603110512
1.84375,0.9181039985797989
1.8515625,0.8694488072360608
1.859375,0.8791798455048084
1.8671875,0.8499867306985656
1.875,0.888910883773556
1.8828125,0.840255692429818
1.890625,0.8499867306985656
1.8984375,0.8207936158923228
1.90625,0.8110625776235751
1.9140625,0.8110625776235751
1.921875,0.8207936158923228
1.9296875,0.8110625776235751
1.9375,0.8013315393548276
1.9453125,0.7721384245485847
1.953125,0.8013315393548276
1.9609375,0.7818694628173324
1.96875,0.7916005010860799
1.9765625,0.7624073862798372
1.984375,0.7818694628173324
1.9921875,0.742945309742342
2.0,0.7916005010860799
2.0078125,0.7624073862798372
2.015625,0.7624073862798372
2.0234375,0.7526763480110896
2.03125,0.7234832332048468
2.0390625,0.7526763480110896
2.046875,0.742945309742342
2.0546875,0.742945309742342
2.0625,0.7234832332048468
2.0703125,0.7137521949360992
2.078125,0.7526763480110896
2.0859375,0.7721384245485847
2.09375,0.742945309742342
2.1015625,0.7526763480110896
2.109375,0.7624073862798372
2.1171875,0.7526763480110896
2.125,0.7721384245485847
2.1328125,0.7721384245485847
2.140625,0.7624073862798372
2.1484375,0.7721384245485847
2.15625,0.742945309742342
2.1640625,0.7721384245485847
2.171875,0.7624073862798372
2.1796875,0.7721384245485847
2.1875,0.7040211566673515
2.1953125,0.7137521949360992
2.203125,0.6553659653236136
2.2109375,0.8013315393548276
2.21875,0.694290118398604
2.2265625,-0.32746889981989435
2.234375,-0.7750966601822841
2.2421875,-0.8334828897947697
2.25,-0.8432139280635172
2.2578125,-0.8529449663322649
2.265625,-0.8821380811385077
2.2734375,-0.8529449663322649
2.28125,-0.8918691194072553
2.2890625,-0.8432139280635172
2.296875,-0.8626760046010125
2.3046875,-0.8724070428697601
2.3125,-0.8821380811385077
2.3203125,-0.8918691194072553
2.328125,-0.8626760046010125
2.3359375,-0.8626760046010125
2.34375,-0.8626760046010125
2.3515625,-0.8626760046010125
2.359375,-0.8626760046010125
2.3671875,-0.8626760046010125
2.375,-0.8432139280635172
2.3828125,-0.8626760046010125
2.390625,-0.8626760046010125
2.3984375,-0.8626760046010125
2.40625,-0.8626760046010125
2.4140625,-0.8432139280635172
2.421875,-0.8432139280635172
2.4296875,-0.8529449663322649
2.4375,-0.8432139280635172
2.4453125,-0.8821380811385077
2.453125,-0.8042897749885268
2.4609375,-0.8529449663322649
2.46875,-0.823751851526022
2.4765625,-0.823751851526022
2.484375,-0.8140208132572745
2.4921875,-0.8432139280635172
2.5,-0.7750966601822841
2.5078125,-0.8140208132572745
2.515625,-0.7945587367197793
2.5234375,-0.8042897749885268
2.53125,-0.7945587367197793
2.5390625,-0.7653656219135365
2.546875,-0.7750966601822841
2.5546875,-0.7945587367197793
2.5625,-0.7653656219135365
2.5703125,-0.8042897749885268
2.578125,-0.7459035453760413
2.5859375,-0.7945587367197793
2.59375,-0.7556345836447889
2.6015625,-0.7848276984510316
2.609375,-0.7750966601822841
2.6171875,-0.7750966601822841
2.625,-0.7361725071072936
2.6328125,-0.7750966601822841
2.640625,-0.7459035453760413
2.6484375,-0.7653656219135365
2.65625,-0.7653656219135365
2.6640625,-0.7556345836447889
2.671875,-0.7361725071072936
2.6796875,-0.7459035453760413
2.6875,-0.7264414688385461
2.6953125,-0.7459035453760413
2.703125,-0.6875173157635557
2.7109375,-0.6583242009573128
2.71875,-0.9599863872884885
2.7265625,0.22720028149871901
2.734375,0.6748280418611088
2.7421875,0.7040211566673515
2.75,0.7818694628173324
2.7578125,0.7137521949360992
2.765625,0.7332142714735944
2.7734375,0.694290118398604
2.78125,0.6650970035923611
2.7890625,0.6748280418611088
2.796875,0.6650970035923611
2.8046875,0.6359038887861184
2.8125,0.6553659653236136
2.8203125,0.6359038887861184
2.828125,0.6845590801298563
2.8359375,0.6456349270548659
2.84375,0.6845590801298563
2.8515625,0.6650970035923611
2.859375,0.7040211566673515
2.8671875,0.694290118398604
2.875,0.7234832332048468
2.8828125,0.7234832332048468
2.890625,0.7234832332048468
2.8984375,0.7332142714735944
2.90625,0.7234832332048468
2.9140625,0.742945309742342
2.921875,0.742945309742342
2.9296875,0.7234832332048468
2.9375,0.742945309742342
2.9453125,0.7137521949360992
2.953125,0.7721384245485847
2.9609375,0.7526763480110896
2.96875,0.7332142714735944
2.9765625,0.7332142714735944
2.984375,0.7234832332048468
2.9921875,0.7526763480110896
3.0,0.7137521949360992
3.0078125,0.7137521949360992
3.015625,0.7137521949360992
3.0234375,0.6845590801298563
3.03125,0.7234832332048468
3.0390625,0.7040211566673515
3.046875,0.7040211566673515
3.0546875,0.6845590801298563
3.0625,0.6650970035923611
3.0703125,0.7137521949360992
3.078125,0.694290118398604
3.0859375,0.694290118398604
3.09375,0.6650970035923611
3.1015625,0.6845590801298563
3.109375,0.6650970035923611
3.1171875,0.694290118398604
3.125,0.6845590801298563
3.1328125,0.6845590801298563
3.140625,0.6553659653236136
3.1484375,0.6748280418611088
3.15625,0.6748280418611088
3.1640625,0.6748280418611088
3.171875,0.6553659653236136
3.1796875,0.6553659653236136
3.1875,0.6067107739798755
3.1953125,0.6456349270548659
3.203125,0.5775176591736327
3.2109375,0.6650970035923611
3.21875,0.5677866209048851
3.2265625,-0.43451032077611795
3.234375,-0.823751851526022
3.2421875,-0.9113311959447505
3.25,-0.9599863872884885
3.2578125,-0.9405243107509933
3.265625,-0.9891795020947314
3.2734375,-0.9113311959447505
3.28125,-0.9891795020947314
3.2890625,-0.9405243107509933
3.296875,-0.9599863872884885
3.3046875,-0.950255349019741
3.3125,-0.9210622342134981
3.3203125,-0.9307932724822457
3.328125,-0.9210622342134981
3.3359375,-0.9307932724822457
3.34375,-0.950255349019741
3.3515625,-0.9210622342134981
3.359375,-0.9210622342134981
3.3671875,-0.9210622342134981
3.375,-0.9113311959447505
3.3828125,-0.9405243107509933
3.390625,-0.8821380811385077
3.3984375,-0.9210622342134981
3.40625,-0.8821380811385077
3.4140625,-0.9210622342134981
3.421875,-0.9016001576760029
3.4296875,-0.8918691194072553
3.4375,-0.8626760046010125
3.4453125,-0.8724070428697601
3.453125,-0.8626760046010125
3.4609375,-0.8821380811385077
3.46875,-0.8529449663322649
3.4765625,-0.8626760046010125
3.484375,-0.8529449663322649
3.4921875,-0.8724070428697601
3.5,-0.8724070428697601
3.5078125,-0.8821380811385077
3.515625,-0.8334828897947697
3.5234375,-0.8724070428697601
3.53125,-0.8724070428697601
3.5390625,-0.8724070428697601
3.546875,-0.8724070428697601
3.5546875,-0.8626760046010125
3.5625,-0.8724070428697601
3.5703125,-0.8626760046010125
3.578125,-0.8821380811385077
3.5859375,-0.8821380811385077
3.59375,-0.8724070428697601
3.6015625,-0.8529449663322649
3.609375,-0.9016001576760029
3.6171875,-0.8529449663322649
3.625,-0.9210622342134981
3.6328125,-0.8432139280635172
3.640625,-0.8821380811385077
3.6484375,-0.8724070428697601
3.65625,-0.8821380811385077
3.6640625,-0.8724070428697601
3.671875,-0.8626760046010125
3.6796875,-0.8334828897947697
3.6875,-0.8334828897947697
3.6953125,-0.8334828897947697
3.703125,-0.823751851526022
3.7109375,-0.7848276984510316
3.71875,-0.9891795020947314
3.7265625,0.26612443457370943
3.734375,0.6650970035923611
3.7421875,0.7137521949360992
3.75,0.7526763480110896
3.7578125,0.7526763480110896
3.765625,0.7332142714735944
3.7734375,0.7137521949360992
3.78125,0.7040211566673515
3.7890625,0.7137521949360992
3.796875,0.7040211566673515
3.8046875,0.7137521949360992
3.8125,0.694290118398604
3.8203125,0.6650970035923611
3.828125,0.694290118398604
3.8359375,0.7040211566673515
3.84375,0.6845590801298563
3.8515625,0.6748280418611088
3.859375,0.6845590801298563
3.8671875,0.6650970035923611
3.875,0.7040211566673515
3.8828125,0.6748280418611088
3.890625,0.6650970035923611
3.8984375,0.6748280418611088
3.90625,0.6456349270548659
3.9140625,0.694290118398604
3.921875,0.6650970035923611
3.9296875,0.6748280418611088
3.9375,0.6650970035923611
3.9453125,0.6456349270548659
3.953125,0.6845590801298563
3.9609375,0.6553659653236136
3.96875,0.6650970035923611
3.9765625,0.6553659653236136
3.984375,0.6359038887861184
3.9921875,0.6553659653236136
4.0,0.6456349270548659
4.0078125,0.6261728505173707
4.015625,0.6261728505173707
4.0234375,0.596979735711128
4.03125,0.6456349270548659
4.0390625,0.6261728505173707
4.046875,0.6456349270548659
4.0546875,0.6067107739798755
4.0625,0.6261728505173707
4.0703125,0.6164418122486232
4.078125,0.6553659653236136
4.0859375,0.6456349270548659
4.09375,0.6456349270548659
4.1015625,0.6164418122486232
4.109375,0.6456349270548659
4.1171875,0.6456349270548659
4.125,0.6553659653236136
4.1328125,0.6067107739798755
4.140625,0.6650970035923611
4.1484375,0.596979735711128
4.15625,0.6650970035923611
4.1640625,0.6164418122486232
4.171875,0.6359038887861184
4.1796875,0.596979735711128
4.1875,0.596979735711128
4.1953125,0.5872486974423803
4.203125,0.5677866209048851
4.2109375,0.5872486974423803
4.21875,0.7137521949360992
4.2265625,-0.38585512943237993
4.234375,-0.8626760046010125
4.2421875,-0.9891795020947314
4.25,-0.9794484638259837
4.2578125,-1.0183726169009741
4.265625,-1.0183726169009741
4.2734375,-1.0281036551697218
4.28125,-0.9989105403634789
4.2890625,-1.0281036551697218
4.296875,-1.0183726169009741
4.3046875,-1.0281036551697218
4.3125,-0.9989105403634789
4.3203125,-1.0086415786322265
4.328125,-0.9891795020947314
4.3359375,-1.0086415786322265
4.34375,-0.9989105403634789
4.3515625,-1.0183726169009741
4.359375,-0.9599863872884885
4.3671875,-0.9989105403634789
4.375,-0.9697174255572362
4.3828125,-0.9891795020947314
4.390625,-0.9891795020947314
4.3984375,-0.9697174255572362
4.40625,-0.9697174255572362
4.4140625,-0.9697174255572362
4.421875,-0.9794484638259837
4.4296875,-0.9891795020947314
4.4375,-0.950255349019741
4.4453125,-0.9599863872884885
4.453125,-0.9697174255572362
4.4609375,-0.9599863872884885
4.46875,-0.9891795020947314
4.4765625,-0.9405243107509933
4.484375,-0.950255349019741
4.4921875,-0.9405243107509933
4.5,-0.9794484638259837
4.5078125,-0.950255349019741
4.515625,-0.9891795020947314
4.5234375,-0.9210622342134981
4.53125,-0.9599863872884885
4.5390625,-0.950255349019741
4.546875,-0.9599863872884885
4.5546875,-0.9697174255572362
4.5625,-0.9405243107509933
4.5703125,-0.950255349019741
4.578125,-0.950255349019741
4.5859375,-0.9599863872884885
4.59375,-0.9891795020947314
4.6015625,-0.9405243107509933
4.609375,-0.9697174255572362
4.6171875,-0.9794484638259837
4.625,-0.9599863872884885
4.6328125,-0.9989105403634789
4.640625,-0.9405243107509933
4.6484375,-0.9599863872884885
4.65625,-0.9405243107509933
4.6640625,-0.9697174255572362
4.671875,-0.950255349019741
4.6796875,-0.9405243107509933
4.6875,-0.9016001576760029
4.6953125,-0.9210622342134981
4.703125,-0.8821380811385077
4.7109375,-0.950255349019741
4.71875,-0.9307932724822457
4.7265625,-0.11338605790744707
4.734375,0.4899383147549043
4.7421875,0.5872486974423803
4.75,0.6067107739798755
4.7578125,0.6067107739798755
4.765625,0.6164418122486232
4.7734375,0.6067107739798755
4.78125,0.5580555826361375
4.7890625,0.5775176591736327
4.796875,0.4802072764861567
4.8046875,0.5580555826361375
4.8125,0.4996693530236519
4.8203125,0.5094003912923994
4.828125,0.4996693530236519
4.8359375,0.4996693530236519
4.84375,0.4996693530236519
4.8515625,0.4899383147549043
4.859375,0.4802072764861567
4.8671875,0.4704762382174091
4.875,0.45101416167991387
4.8828125,0.4996693530236519
4.890625,0.4899383147549043
4.8984375,0.4607451999486615
4.90625,0.4802072764861567
4.9140625,0.42182104687367106
4.921875,0.5094003912923994
4.9296875,0.45101416167991387
4.9375,0.4704762382174091
4.9453125,0.45101416167991387
4.953125,0.44128312341116627
4.9609375,0.4607451999486615
4.96875,0.4704762382174091
4.9765625,0.4607451999486615
4.984375,0.4607451999486615
4.9921875,0.45101416167991387
5.0,0.4802072764861567
5.0078125,0.4607451999486615
5.015625,0.44128312341116627
5.0234375,0.4802072764861567
5.03125,0.42182104687367106
5.0390625,0.5094003912923994
5.046875,0.4607451999486615
5.0546875,0.5094003912923994
5.0625,0.4704762382174091
5.0703125,0.5094003912923994
5.078125,0.5094003912923994
5.0859375,0.5094003912923994
5.09375,0.5094003912923994
5.1015625,0.5094003912923994
5.109375,0.5094003912923994
5.1171875,0.5094003912923994
5.125,0.5094003912923994
5.1328125,0.5094003912923994
5.140625,0.5191314295611471
5.1484375,0.4802072764861567
5.15625,0.4996693530236519
5.1640625,0.4802072764861567
5.171875,0.4899383147549043
5.1796875,0.4607451999486615
5.1875,0.44128312341116627
5.1953125,0.42182104687367106
5.203125,0.44128312341116627
5.2109375,0.3731658555299331
5.21875,0.7040211566673515
5.2265625,-0.4734344738511084
5.234375,-1.0378346934384692
5.2421875,-1.0572967699759646
5.25,-1.11568299958845
5.2578125,-1.1351450761259454
5.265625,-1.144876114394693
5.2734375,-1.1546071526634405
5.28125,-1.144876114394693
5.2890625,-1.1351450761259454
5.296875,-1.1546071526634405
5.3046875,-1.144876114394693
5.3125,-1.1546071526634405
5.3203125,-1.1351450761259454
5.328125,-1.1351450761259454
5.3359375,-1.1643381909321882
5.34375,-1.1351450761259454
5.3515625,-1.1838002674696835
5.359375,-1.1059519613197026
5.3671875,-1.144876114394693
5.375,-1.1351450761259454
5.3828125,-1.144876114394693
5.390625,-1.144876114394693
5.3984375,-1.1254140378571977
5.40625,-1.1351450761259454
5.4140625,-1.1254140378571977
5.421875,-1.1254140378571977
5.4296875,-1.1254140378571977
5.4375,-1.1254140378571977
5.4453125,-1.0864898847822073
5.453125,-1.1059519613197026
5.4609375,-1.0864898847822073
5.46875,-1.1254140378571977
5.4765625,-1.0670278082447122
5.484375,-1.0864898847822073
5.4921875,-1.0767588465134597
5.5,-1.0670278082447122
5.5078125,-1.1254140378571977
5.515625,-1.0378346934384692
5.5234375,-1.0864898847822073
5.53125,-1.0378346934384692
5.5390625,-1.0864898847822073
5.546875,-1.0670278082447122
5.5546875,-1.0670278082447122
5.5625,-1.047565731707217
5.5703125,-1.0670278082447122
5.578125,-1.0670278082447122
5.5859375,-1.0767588465134597
5.59375,-1.0572967699759646
5.6015625,-1.0670278082447122
5.609375,-1.0670278082447122
5.6171875,-1.0670278082447122
5.625,-1.1059519613197026
5.6328125,-1.0572967699759646
5.640625,-1.0767588465134597
5.6484375,-1.0572967699759646
5.65625,-1.096220923050955
5.6640625,-1.0767588465134597
5.671875,-1.0670278082447122
5.6796875,-1.047565731707217
5.6875,-1.0378346934384692
5.6953125,-1.047565731707217
5.703125,-0.9989105403634789
5.7109375,-1.0572967699759646
5.71875,-1.0183726169009741
5.7265625,-0.13284813444494228
5.734375,0.45101416167991387
5.7421875,0.4899383147549043
5.75,0.5872486974423803
5.7578125,0.5483245443673899
5.765625,0.5677866209048851
5.7734375,0.5483245443673899
5.78125,0.5191314295611471
5.7890625,0.5385935060986423
5.796875,0.5288624678298947
5.8046875,0.5094003912923994
5.8125,0.5094003912923994
5.8203125,0.4996693530236519
5.828125,0.5094003912923994
5.8359375,0.5191314295611471
5.84375,0.4996693530236519
5.8515625,0.5191314295611471
5.859375,0.4899383147549043
5.8671875,0.5288624678298947
5.875,0.5288624678298947
5.8828125,0.5094003912923994
5.890625,0.5580555826361375
5.8984375,0.4802072764861567
5.90625,0.5677866209048851
5.9140625,0.5288624678298947
5.921875,0.5483245443673899
5.9296875,0.5191314295611471
5.9375,0.5385935060986423
5.9453125,0.5483245443673899
5.953125,0.5483245443673899
5.9609375,0.5385935060986423
5.96875,0.5191314295611471
5.9765625,0.5483245443673899
5.984375,0.5385935060986423
5.9921875,0.5677866209048851
6.0,0.5385935060986423
6.0078125,0.5580555826361375
6.015625,0.5288624678298947
6.0234375,0.5872486974423803
6.03125,0.5677866209048851
6.0390625,0.5677866209048851
6.046875,0.5872486974423803
6.0546875,0.5872486974423803
6.0625,0.6067107739798755
6.0703125,0.5872486974423803
6.078125,0.6164418122486232
6.0859375,0.5872486974423803
6.09375,0.6553659653236136
6.1015625,0.6456349270548659
6.109375,0.6553659653236136
6.1171875,0.6748280418611088
6.125,0.6261728505173707
6.1328125,0.7137521949360992
6.140625,0.6650970035923611
6.1484375,0.694290118398604
6.15625,0.6650970035923611
6.1640625,0.6650970035923611
6.171875,0.6845590801298563
6.1796875,0.6845590801298563
6.1875,0.6748280418611088
6.1953125,0.6553659653236136
6.203125,0.6456349270548659
6.2109375,0.6456349270548659
6.21875,0.8305246541610704
6.2265625,-0.1620412492511851
6.234375,-0.7167104305697984
6.2421875,-0.8334828897947697
6.25,-0.823751851526022
6.2578125,-0.8140208132572745
6.265625,-0.8334828897947697
6.2734375,-0.8042897749885268
6.28125,-0.8334828897947697
6.2890625,-0.7750966601822841
6.296875,-0.7750966601822841
6.3046875,-0.7848276984510316
6.3125,-0.7750966601822841
6.3203125,-0.7653656219135365
6.328125,-0.7264414688385461
6.3359375,-0.7167104305697984
6.34375,-0.7069793923010509
6.3515625,-0.7264414688385461
6.359375,-0.677786277494808
6.3671875,-0.6583242009573128
6.375,-0.6680552392260605
6.3828125,-0.6388621244198176
6.390625,-0.6680552392260605
6.3984375,-0.580475894807332
6.40625,-0.6096690096135748
6.4140625,-0.580475894807332
6.421875,-0.5707448565385844
6.4296875,-0.5902069330760796
6.4375,-0.5026275886573512
6.4453125,-0.5220896651948463
6.453125,-0.5123586269260988
6.4609375,-0.4928965503886036
6.46875,-0.483165512119856
6.4765625,-0.43451032077611795
6.484375,-0.44424135904486556
6.4921875,-0.40531720596987514
6.5,-0.43451032077611795
6.5078125,-0.3761240911636324
6.515625,-0.3663930528948848
6.5234375,-0.35666201462613717
6.53125,-0.33719993808864196
6.5390625,-0.33719993808864196
6.546875,-0.28854474674490393
6.5546875,-0.27881370847615633
6.5625,-0.24962059366991352
6.5703125,-0.2593516319386611
6.578125,-0.2301585171324183
6.5859375,-0.2106964405949231
6.59375,-0.1815033257886803
6.6015625,-0.1717722875199327
6.609375,-0.1815033257886803
6.6171875,-0.13284813444494228
6.625,-0.12311709617619468
6.6328125,-0.07446190483245665
6.640625,-0.06473086656370905
6.6484375,-0.04526879002621385
6.65625,-0.03553775175746625
6.6640625,0.013117439586271767
6.671875,0.04231055439251458
6.6796875,0.04231055439251458
6.6875,0.12015886054249539
6.6953125,0.10069678400500018
6.703125,0.2174692432299714
6.7109375,0.2174692432299714
6.71875,-0.05499982829496145
6.7265625,1.2684213762547127
6.734375,1.628469792198374
6.7421875,1.8036284810358307
6.75,1.8036284810358307
6.7578125,1.8425526341108212
6.765625,1.8522836723795688
6.7734375,1.8912078254545592
6.78125,1.9301319785295497
6.7890625,1.9593250933357924
6.796875,1.9787871698732877
6.8046875,2.0079802846795305
6.8125,2.017711322948278
6.8203125,2.066366514292016
6.828125,2.095559629098259
6.8359375,2.1052906673670067
6.84375,2.163676896979492
6.8515625,2.134483782173249
6.859375,2.2512562413982207
6.8671875,2.21233208832323
6.875,2.2707183179357155
6.8828125,2.290180394473211
6.890625,2.309642471010706
6.8984375,2.3680287006231917
6.90625,2.387490777160687
6.9140625,2.4264149302356772
6.921875,2.45560804504192
6.9296875,2.465339083310668
6.9375,2.5237253129231534
6.9453125,2.5431873894606487
6.953125,2.5723805042668912
6.9609375,2.6015736190731342
6.96875,2.5918425808043866
6.9765625,2.6891529634918627
6.984375,2.679421925223115
6.9921875,2.728077116566853
7.0,2.7378081548356006
7.0078125,2.7767323079105912
7.015625,2.8156564609855814
7.0234375,2.874042690598067
7.03125,2.8935047671355623
7.0390625,2.9421599584793
7.046875,2.9908151498230384
7.0546875,3.0102772263605337
7.0625,3.0686634559730193
7.0703125,3.0881255325105146
7.078125,3.1367807238542524
7.0859375,3.146511762123
7.09375,3.2048979917354856
7.1015625,3.2535531830792235
7.109375,3.292477336154214
7.1171875,3.3119394126917094
7.125,3.370325642304195
7.1328125,3.3508635657666996
7.140625,3.4773670632604183
7.1484375,3.4773670632604183
7.15625,3.5357532928729043
7.1640625,3.555215369410399
7.171875,3.59413952248539
7.1796875,3.6525257520978753
7.1875,3.662256790366623
7.1953125,3.701180943441613
7.203125,3.710911981710361
7.2109375,3.779029249591594
7.21875,3.87633963227907
7.2265625,3.0297393028980286
7.234375,2.4750701215794155
7.2421875,2.436145968504425
7.25,2.4069528536981823
7.2578125,2.504263236385658
7.265625,2.5237253129231534
7.2734375,2.582111542535639
7.28125,2.6015736190731342
7.2890625,2.6696908869543674
7.296875,2.6891529634918627
7.3046875,2.796194384448086
7.3125,2.8059254227168338
7.3203125,2.874042690598067
7.328125,2.90323580540431
7.3359375,2.971353073285543
7.34375,3.0297393028980286
7.3515625,3.0881255325105146
7.359375,3.127049685585505
7.3671875,3.1854359151979903
7.375,3.2048979917354856
7.3828125,3.3216704509604567
7.390625,3.341132527497952
7.3984375,3.4287118719166805
7.40625,3.448173948454176
7.4140625,3.516291216335409
7.421875,3.5357532928729043
7.4296875,3.662256790366623
7.4375,3.6719878286353707
7.4453125,3.740105096516604
7.453125,3.779029249591594
7.4609375,3.83741547920408
7.46875,3.8958017088165655
7.4765625,3.9639189766977987
7.484375,4.012574168041537
7.4921875,4.061229359385274
7.5,4.129346627266508
7.5078125,4.139077665535256
7.515625,4.255850124760227
7.5234375,4.294774277835217
7.53125,4.382353622253945
7.5390625,4.440739851866431
7.546875,4.489395043210169
7.5546875,4.547781272822655
7.5625,4.635360617241383
7.5703125,4.703477885122616
7.578125,4.742402038197607
7.5859375,4.8202503443475875
7.59375,4.888367612228821
7.6015625,4.9370228035725585
7.609375,5.024602147991287
7.6171875,5.102450454141268
7.625,5.151105645485005
7.6328125,5.209491875097491
7.640625,5.277609142978725
7.6484375,5.297071219516219
7.65625,5.384650563934948
7.6640625,5.423574717009939
7.671875,5.462498870084929
7.6796875,5.501423023159919
7.6875,5.491691984891172
7.6953125,5.501423023159919
7.703125,5.462498870084929
7.7109375,5.861471439103581
7.71875,4.878636573960073
7.7265625,1.677124983542112
7.734375,0.742945309742342
7.7421875,0.4899383147549043
7.75,0.40235897033617585
7.7578125,0.32451066418619506
7.765625,0.30504858764869985
7.7734375,0.25639339630496183
7.78125,0.26612443457370943
7.7890625,0.1980071666924762
7.796875,0.23693131976746662
7.8046875,0.1688140518862334
7.8125,0.1493519753487382
7.8203125,0.07150366919875738
7.828125,0.04231055439251458
7.8359375,0.04231055439251458
7.84375,0.03257951612376697
7.8515625,0.013117439586271767
7.859375,-0.006344636951223438
7.8671875,-0.05499982829496145
7.875,-0.03553775175746625
7.8828125,-0.07446190483245665
7.890625,-0.08419294310120427
7.8984375,-0.1425791727136899
7.90625,-0.13284813444494228
7.9140625,-0.2301585171324183
7.921875,-0.1815033257886803
7.9296875,-0.2593516319386611
7.9375,-0.28854474674490393
7.9453125,-0.34693097635738956
7.953125,-0.35666201462613717
7.9609375,-0.39558616770112753
7.96875,-0.44424135904486556
7.9765625,-0.483165512119856
7.984375,-0.531820703463594
7.9921875,-0.5415517417323416
8.0,-0.5902069330760796
8.0078125,-0.5902069330760796
8.015625,-0.6583242009573128
8.0234375,-0.677786277494808
8.03125,-0.7167104305697984
8.0390625,-0.7069793923010509
8.046875,-0.7556345836447889
8.0546875,-0.7750966601822841
8.0625,-0.823751851526022
8.0703125,-0.8334828897947697
8.078125,-0.8724070428697601
8.0859375,-0.8724070428697601
8.09375,-0.9113311959447505
8.1015625,-0.9599863872884885
8.109375,-0.9599863872884885
8.1171875,-1.0183726169009741
8.125,-1.0086415786322265
8.1328125,-1.0572967699759646
8.140625,-1.0572967699759646
8.1484375,-1.11568299958845
8.15625,-1.1254140378571977
8.1640625,-1.1838002674696835
8.171875,-1.193531305738431
8.1796875,-1.261648573619664
8.1875,-1.261648573619664
8.1953125,-1.3103037649634022
8.203125,-1.3492279180383926
8.2109375,-1.3784210328446354
8.21875,-1.4562693389946162
8.2265625,-1.4465383007258685
8.234375,-1.4951934920696066
8.2421875,-1.5146555686071017
8.25,-1.5633107599508398
8.2578125,-1.5925038747570825
8.265625,-1.6216969895633253
8.2734375,-1.631428027832073
8.28125,-1.6898142574445585
8.2890625,-1.6898142574445585
8.296875,-1.777393601863287
8.3046875,-1.7579315253257919
8.3125,-1.8163177549382774
8.3203125,-1.8552419080132678
8.328125,-1.8747039845507631
8.3359375,-1.9525522907007438
8.34375,-1.8941660610882582
8.3515625,-1.9622833289694914
8.359375,-1.9525522907007438
8.3671875,-1.9914764437757342
8.375,-2.001207482044482
8.3828125,-2.020669558581977
8.390625,-2.020669558581977
8.3984375,-2.0401316351194723
8.40625,-2.0693247499257152
8.4140625,-2.079055788194463
8.421875,-2.1082489030007054
8.4296875,-2.117979941269453
8.4375,-2.1374420178069484
8.4453125,-2.147173056075696
8.453125,-2.2055592856881816
8.4609375,-2.166635132613191
8.46875,-2.2055592856881816
8.4765625,-2.1860972091506863
8.484375,-2.2152903239569293
8.4921875,-2.234752400494424
8.5,-2.1860972091506863
8.5078125,-2.2055592856881816
8.515625,-2.1860972091506863
8.5234375,-2.225021362225677
8.53125,-2.2055592856881816
8.5390625,-2.2152903239569293
8.546875,-2.2152903239569293
8.5546875,-2.273676553569415
8.5625,-2.2834075918381624
8.5703125,-2.312600706644405
8.578125,-2.2834075918381624
8.5859375,-2.29313863010691
8.59375,-2.341793821450648
8.6015625,-2.3320627831819003
8.609375,-2.4293731658693765
8.6171875,-2.3612558979881433
8.625,-2.439104204138124
8.6328125,-2.4293731658693765
8.640625,-2.448835242406872
8.6484375,-2.448835242406872
8.65625,-2.4001800510631335
8.6640625,-2.4293731658693765
8.671875,-2.419642127600629
8.6796875,-2.419642127600629
8.6875,-2.390449012794386
8.6953125,-2.3612558979881433
8.703125,-2.3320627831819003
8.7109375,-2.3612558979881433
8.71875,-2.341793821450648
8.7265625,-2.341793821450648
8.734375,-2.263945515300667
8.7421875,-2.273676553569415
8.75,-2.3028696683756578
8.7578125,-2.2834075918381624
8.765625,-2.3223317449131526
8.7734375,-2.263945515300667
8.78125,-2.3028696683756578
8.7890625,-2.3028696683756578
8.796875,-2.3320627831819003
8.8046875,-2.29313863010691
8.8125,-2.29313863010691
8.8203125,-2.273676553569415
8.828125,-2.273676553569415
8.8359375,-2.263945515300667
8.84375,-2.195828247419434
8.8515625,-1.6411590661008206
8.859375,-0.8140208132572745
8.8671875,-1.6898142574445585
8.875,-2.1860972091506863
8.8828125,-2.147173056075696
8.890625,-2.04986267338822
8.8984375,-2.0693247499257152
8.90625,-2.1082489030007054
8.9140625,-2.1374420178069484
8.921875,-2.147173056075696
8.9296875,-2.1277109795382008
8.9375,-2.1860972091506863
8.9453125,-2.1569040943444437
8.953125,-2.195828247419434
8.9609375,-2.117979941269453
8.96875,-2.1277109795382008
8.9765625,-2.1277109795382008
8.984375,-2.1082489030007054
8.9921875,-2.166635132613191
9.0,-2.0109385203132293
9.0078125,-2.0109385203132293
9.015625,-1.9428212524319963
9.0234375,-1.9330902141632487
9.03125,-1.923359175894501
9.0390625,-1.8649729462820155
9.046875,-1.8357798314757727
9.0546875,-1.7676625635945393
9.0625,-1.7579315253257919
9.0703125,-1.7190073722508015
9.078125,-1.6703521809070634
9.0859375,-1.6022349130258302
9.09375,-1.5925038747570825
9.1015625,-1.4951934920696066
9.109375,-1.4270762241883732
9.1171875,-1.339496879769645
9.125,-1.2713796118884118
9.1328125,-1.3200348032321496
9.140625,-1.3103037649634022
9.1484375,-1.35895895630714
9.15625,-1.3978831093821305
9.1640625,-1.485462453800859
9.171875,-1.5535797216820921
9.1796875,-1.6508901043695683
9.1875,-1.6606211426383157
9.1953125,-1.6703521809070634
9.203125,-1.6898142574445585
9.2109375,-1.6606211426383157
9.21875,-1.728738410519549
9.2265625,-1.6119659512945779
9.234375,-1.6216969895633253
9.2421875,-1.5730417982195875
9.25,-1.5438486834133445
9.2578125,-1.5535797216820921
9.265625,-1.4562693389946162
9.2734375,-1.4757314155321113
9.28125,-1.4660003772633636
9.2890625,-1.4562693389946162
9.296875,-1.3492279180383926
9.3046875,-1.339496879769645
9.3125,-1.3978831093821305
9.3203125,-1.4173451859196258
9.328125,-1.4660003772633636
9.3359375,-1.4270762241883732
9.34375,-1.4562693389946162
9.3515625,-1.3978831093821305
9.359375,-1.3978831093821305
9.3671875,-1.388152071113383
9.375,-1.339496879769645
9.3828125,-1.3686899945758877
9.390625,-1.35895895630714
9.3984375,-1.3978831093821305
9.40625,-1.3784210328446354
9.4140625,-1.4368072624571209
9.421875,-1.4368072624571209
9.4296875,-1.4368072624571209
9.4375,-1.3978831093821305
9.4453125,-1.3492279180383926
9.453125,-1.3492279180383926
9.4609375,-1.242186497082169
9.46875,-1.2713796118884118
9.4765625,-1.2324554588134213
9.484375,-1.2324554588134213
9.4921875,-1.2129933822759262
9.5,-1.1838002674696835
9.5078125,-1.144876114394693
9.515625,-1.096220923050955
9.5234375,-1.0767588465134597
9.53125,-1.047565731707217
9.5390625,-1.0378346934384692
9.546875,-1.0183726169009741
9.5546875,-1.0183726169009741
9.5625,-0.9599863872884885
9.5703125,-0.9891795020947314
9.578125,-1.0767588465134597
9.5859375,-0.9989105403634789
9.59375,-0.9794484638259837
9.6015625,-0.9210622342134981
9.609375,-0.9113311959447505
9.6171875,-0.823751851526022
9.625,-0.8334828897947697
9.6328125,-0.7750966601822841
9.640625,-0.46370343558236077
9.6484375,0.40235897033617585
9.65625,1.5214283712421504
9.6640625,0.33424170245494267
9.671875,-0.9307932724822457
9.6796875,-0.7361725071072936
9.6875,-0.5610138182698368
9.6953125,-0.5123586269260988
9.703125,-0.6388621244198176
9.7109375,-0.580475894807332
9.71875,-0.6485931626885653
9.7265625,-0.677786277494808
9.734375,-0.7069793923010509
9.7421875,-0.6583242009573128
9.75,-0.580475894807332
9.7578125,-0.5902069330760796
9.765625,-0.5415517417323416
9.7734375,-0.5415517417323416
9.78125,-0.4734344738511084
9.7890625,-0.46370343558236077
9.796875,-0.44424135904486556
9.8046875,-0.43451032077611795
9.8125,-0.45397239731361316
9.8203125,-0.39558616770112753
9.828125,-0.39558616770112753
9.8359375,-0.31773786155114675
9.84375,-0.33719993808864196
9.8515625,-0.29827578501365154
9.859375,-0.29827578501365154
9.8671875,-0.2398895554011659
9.875,-0.09392398136995188
9.8828125,0.0033864013175241643
9.890625,0.07150366919875738
9.8984375,0.1493519753487382
9.90625,0.2077382049612238
9.9140625,0.27585547284245704
9.921875,0.3731658555299331
9.9296875,0.3634348172611855
9.9375,0.3731658555299331
9.9453125,0.23693131976746662
9.953125,0.07150366919875738
9.9609375,-0.025806713488718644
9.96875,-0.1717722875199327
9.9765625,-0.1620412492511851
9.984375,-0.27881370847615633
9.9921875,-0.34693097635738956
10.0,-0.4734344738511084
10.0078125,-0.483165512119856
10.015625,-0.43451032077611795
10.0234375,-0.39558616770112753
10.03125,-0.39558616770112753
10.0390625,-0.39558616770112753
10.046875,-0.41504824423862274
10.0546875,-0.34693097635738956
10.0625,-0.30800682328239914
10.0703125,-0.2301585171324183
10.078125,-0.1620412492511851
10.0859375,-0.1815033257886803
10.09375,-0.12311709617619468
10.1015625,-0.1620412492511851
10.109375,-0.1523102109824375
10.1171875,-0.2009654023261755
10.125,-0.24962059366991352
10.1328125,-0.2690826702074087
10.140625,-0.2593516319386611
10.1484375,-0.27881370847615633
10.15625,-0.2593516319386611
10.1640625,-0.29827578501365154
10.171875,-0.2690826702074087
10.1796875,-0.35666201462613717
10.1875,-0.33719993808864196
10.1953125,-0.27881370847615633
10.203125,-0.2593516319386611
10.2109375,-0.2009654023261755
10.21875,-0.2009654023261755
10.2265625,-0.1815033257886803
10.234375,-0.1717722875199327
10.2421875,-0.1425791727136899
10.25,-0.1620412492511851
10.2578125,-0.2106964405949231
10.265625,-0.28854474674490393
10.2734375,-0.24962059366991352
10.28125,-0.2593516319386611
10.2890625,-0.1815033257886803
10.296875,-0.2593516319386611
10.3046875,-0.2204274788636707
10.3125,-0.24962059366991352
10.3203125,-0.24962059366991352
10.328125,-0.2301585171324183
10.3359375,-0.1815033257886803
10.34375,-0.2009654023261755
10.3515625,-0.1717722875199327
10.359375,-0.2106964405949231
10.3671875,-0.1717722875199327
10.375,-0.2398895554011659
10.3828125,-0.2204274788636707
10.390625,-0.2204274788636707
10.3984375,-0.2009654023261755
10.40625,-0.2106964405949231
10.4140625,-0.12311709617619468
10.421875,-0.12311709617619468
10.4296875,-0.1425791727136899
10.4375,-0.1717722875199327
10.4453125,-0.1717722875199327
10.453125,-0.1815033257886803
10.4609375,-0.2106964405949231
10.46875,-0.2009654023261755
10.4765625,-0.2106964405949231
10.484375,-0.1912343640574279
10.4921875,-0.1523102109824375
10.5,-0.2301585171324183
10.5078125,-0.1815033257886803
10.515625,0.10069678400500018
10.5234375,1.015414381267275
10.53125,2.465339083310668
10.5390625,1.72578017488585
10.546875,-0.33719993808864196
10.5546875,-0.44424135904486556
10.5625,-0.04526879002621385
10.5703125,0.06177263093000978
10.578125,0.05204159266126218
10.5859375,0.02284847785501937
10.59375,0.04231055439251458
10.6015625,0.013117439586271767
10.609375,0.04231055439251458
10.6171875,0.02284847785501937
10.625,0.02284847785501937
10.6328125,0.013117439586271767
10.640625,-0.016075675219971042
10.6484375,-0.025806713488718644
10.65625,-0.03553775175746625
10.6640625,-0.03553775175746625
10.671875,-0.10365501963869947
10.6796875,-0.1717722875199327
10.6875,-0.2106964405949231
10.6953125,-0.11338605790744707
10.703125,-0.025806713488718644
10.7109375,0.07150366919875738
10.71875,0.11042782227374778
10.7265625,0.2077382049612238
10.734375,0.27585547284245704
10.7421875,0.42182104687367106
10.75,0.4899383147549043
10.7578125,0.5775176591736327
10.765625,0.6067107739798755
10.7734375,0.7526763480110896
10.78125,0.7721384245485847
10.7890625,0.8110625776235751
10.796875,0.742945309742342
10.8046875,0.6261728505173707
10.8125,0.5483245443673899
10.8203125,0.4704762382174091
10.828125,0.3439727407236903
10.8359375,0.25639339630496183
10.84375,0.12015886054249539
10.8515625,0.12015886054249539
10.859375,-0.016075675219971042
10.8671875,-0.03553775175746625
10.875,-0.016075675219971042
10.8828125,-0.016075675219971042
10.890625,0.0033864013175241643
10.8984375,-0.016075675219971042
10.90625,-0.03553775175746625
10.9140625,-0.016075675219971042
10.921875,-0.025806713488718644
10.9296875,-0.03553775175746625
10.9375,-0.05499982829496145
10.9453125,-0.006344636951223438
10.953125,0.05204159266126218
10.9609375,0.013117439586271767
10.96875,0.10069678400500018
10.9765625,0.10069678400500018
10.984375,0.11042782227374778
10.9921875,0.05204159266126218
11.0,0.04231055439251458
11.0078125,0.05204159266126218
11.015625,0.06177263093000978
11.0234375,0.013117439586271767
11.03125,0.0033864013175241643
11.0390625,-0.06473086656370905
11.046875,-0.03553775175746625
11.0546875,-0.1620412492511851
11.0625,-0.2301585171324183
11.0703125,-0.29827578501365154
11.078125,-0.2301585171324183
11.0859375,-0.1815033257886803
11.09375,-0.08419294310120427
11.1015625,-0.10365501963869947
11.109375,-0.11338605790744707
11.1171875,-0.10365501963869947
11.125,-0.04526879002621385
11.1328125,0.03257951612376697
11.140625,0.05204159266126218
11.1484375,0.02284847785501937
11.15625,0.013117439586271767
11.1640625,-0.016075675219971042
11.171875,0.013117439586271767
11.1796875,-0.016075675219971042
11.1875,-0.03553775175746625
11.1953125,-0.11338605790744707
11.203125,-0.2690826702074087
11.2109375,-0.1523102109824375
11.21875,-0.12311709617619468
11.2265625,-0.07446190483245665
11.234375,-0.10365501963869947
11.2421875,-0.09392398136995188
11.25,-0.06473086656370905
11.2578125,-0.08419294310120427
11.265625,-0.08419294310120427
11.2734375,-0.06473086656370905
11.28125,-0.08419294310120427
11.2890625,0.013117439586271767
11.296875,-0.016075675219971042
11.3046875,-0.006344636951223438
11.3125,-0.05499982829496145
11.3203125,-0.11338605790744707
11.328125,-0.1620412492511851
11.3359375,-0.1620412492511851
11.34375,-0.12311709617619468
11.3515625,-0.07446190483245665
11.359375,-0.12311709617619468
11.3671875,-0.05499982829496145
11.375,-0.12311709617619468
11.3828125,-0.08419294310120427
11.390625,-0.08419294310120427
11.3984375,-0.09392398136995188
11.40625,-0.05499982829496145
11.4140625,-0.03553775175746625
11.421875,-0.016075675219971042
11.4296875,-0.006344636951223438
11.4375,-0.006344636951223438
11.4453125,0.03257951612376697
11.453125,-0.025806713488718644
11.4609375,-0.025806713488718644
11.46875,0.02284847785501937
11.4765625,0.02284847785501937
11.484375,-0.025806713488718644
11.4921875,0.10069678400500018
11.5,0.6164418122486232
11.5078125,1.7841664044983356
11.515625,2.4458770067731725
11.5234375,0.8305246541610704
11.53125,-0.30800682328239914
11.5390625,-0.07446190483245665
11.546875,0.09096574573625259
11.5546875,0.0033864013175241643
11.5625,0.0033864013175241643
11.5703125,-0.04526879002621385
11.578125,-0.03553775175746625
11.5859375,-0.12311709617619468
11.59375,-0.1620412492511851
11.6015625,-0.03553775175746625
11.609375,0.02284847785501937
11.6171875,0.05204159266126218
11.625,0.05204159266126218
11.6328125,0.04231055439251458
11.640625,0.09096574573625259
11.6484375,0.10069678400500018
11.65625,0.12015886054249539
11.6640625,0.1396209370799906
11.671875,0.11042782227374778
11.6796875,0.2077382049612238
11.6875,0.1980071666924762
11.6953125,0.1688140518862334
11.703125,0.1396209370799906
11.7109375,0.17854509015498102
11.71875,0.24666235803621422
11.7265625,0.3537037789924379
11.734375,0.44128312341116627
11.7421875,0.5580555826361375
11.75,0.596979735711128
11.7578125,0.7040211566673515
11.765625,0.7234832332048468
11.7734375,0.742945309742342
11.78125,0.7721384245485847
11.7890625,0.7526763480110896
11.796875,0.8013315393548276
11.8046875,0.6650970035923611
11.8125,0.5483245443673899
11.8203125,0.3439727407236903
11.828125,0.1980071666924762
11.8359375,0.09096574573625259
11.84375,0.07150366919875738
11.8515625,0.08123470746750498
11.859375,0.03257951612376697
11.8671875,0.06177263093000978
11.875,0.03257951612376697
11.8828125,0.07150366919875738
11.890625,0.03257951612376697
11.8984375,0.02284847785501937
11.90625,0.0033864013175241643
11.9140625,0.013117439586271767
11.921875,0.0033864013175241643
11.9296875,0.0033864013175241643
11.9375,0.0033864013175241643
11.9453125,0.04231055439251458
11.953125,0.12015886054249539
11.9609375,0.11042782227374778
11.96875,0.06177263093000978
11.9765625,-0.016075675219971042
11.984375,0.1396209370799906
11.9921875,0.1493519753487382
12.0,0.1590830136174858
12.0078125,0.1590830136174858
12.015625,0.1396209370799906
12.0234375,0.1590830136174858
12.03125,0.10069678400500018
12.0390625,0.09096574573625259
12.046875,0.0033864013175241643
12.0546875,0.013117439586271767
12.0625,-0.016075675219971042
12.0703125,-0.03553775175746625
12.078125,-0.03553775175746625
12.0859375,-0.09392398136995188
12.09375,-0.03553775175746625
12.1015625,-0.06473086656370905
12.109375,-0.016075675219971042
12.1171875,-0.13284813444494228
12.125,-0.1425791727136899
12.1328125,0.0033864013175241643
12.140625,0.02284847785501937
12.1484375,0.08123470746750498
12.15625,0.24666235803621422
12.1640625,0.7818694628173324
12.171875,1.9982492464107828
12.1796875,1.9495940550670448
12.1875,0.1590830136174858
12.1953125,-0.34693097635738956
12.203125,0.0033864013175241643
12.2109375,0.05204159266126218
12.21875,0.02284847785501937
12.2265625,-0.025806713488718644
12.234375,-0.09392398136995188
12.2421875,-0.04526879002621385
12.25,-0.1717722875199327
12.2578125,-0.13284813444494228
12.265625,-0.07446190483245665
12.2734375,-0.05499982829496145
12.28125,0.013117439586271767
12.2890625,0.05204159266126218
12.296875,0.09096574573625259
12.3046875,0.11042782227374778
12.3125,0.1980071666924762
12.3203125,0.2077382049612238
12.328125,0.23693131976746662
12.3359375,0.25639339630496183
12.34375,0.2174692432299714
12.3515625,0.3537037789924379
12.359375,0.38289689379868064
12.3671875,0.39262793206742824
12.375,0.42182104687367106
12.3828125,0.45101416167991387
12.390625,0.5094003912923994
12.3984375,0.5094003912923994
12.40625,0.596979735711128
12.4140625,0.6650970035923611
12.421875,0.7721384245485847
12.4296875,0.7916005010860799
12.4375,0.7721384245485847
12.4453125,0.7818694628173324
12.453125,0.6748280418611088
12.4609375,0.6067107739798755
12.46875,0.43155208514241866
12.4765625,0.30504858764869985
12.484375,0.22720028149871901
12.4921875,0.1688140518862334
12.5,0.1688140518862334
12.5078125,0.11042782227374778
12.515625,0.09096574573625259
12.5234375,0.09096574573625259
12.53125,0.07150366919875738
12.5390625,0.06177263093000978
12.546875,0.013117439586271767
12.5546875,0.06177263093000978
12.5625,0.09096574573625259
12.5703125,0.07150366919875738
12.578125,0.11042782227374778
12.5859375,0.06177263093000978
12.59375,0.10069678400500018
12.6015625,0.12015886054249539
12.609375,0.08123470746750498
12.6171875,0.07150366919875738
12.625,0.0033864013175241643
12.6328125,0.04231055439251458
12.640625,0.013117439586271767
12.6484375,0.0033864013175241643
12.65625,0.013117439586271767
12.6640625,-0.006344636951223438
12.671875,-0.006344636951223438
12.6796875,-0.09392398136995188
12.6875,0.02284847785501937
12.6953125,0.08123470746750498
12.703125,0.013117439586271767
12.7109375,0.05204159266126218
12.71875,-0.006344636951223438
12.7265625,-0.05499982829496145
12.734375,-0.05499982829496145
12.7421875,-0.05499982829496145
12.75,-0.016075675219971042
12.7578125,-0.04526879002621385
12.765625,-0.05499982829496145
12.7734375,-0.08419294310120427
12.78125,-0.06473086656370905
12.7890625,-0.03553775175746625
12.796875,-0.09392398136995188
12.8046875,-0.06473086656370905
12.8125,-0.03553775175746625
12.8203125,-0.09392398136995188
12.828125,-0.07446190483245665
12.8359375,0.013117439586271767
12.84375,0.06177263093000978
12.8515625,0.02284847785501937
12.859375,-0.016075675219971042
12.8671875,-0.04526879002621385
12.875,-0.07446190483245665
12.8828125,-0.05499982829496145
12.890625,-0.06473086656370905
12.8984375,-0.016075675219971042
12.90625,-0.08419294310120427
12.9140625,-0.10365501963869947
12.921875,-0.10365501963869947
12.9296875,-0.1425791727136899
12.9375,-0.12311709617619468
12.9453125,-0.1523102109824375
12.953125,-0.1620412492511851
12.9609375,-0.1912343640574279
12.96875,-0.1815033257886803
12.9765625,-0.1717722875199327
12.984375,-0.10365501963869947
12.9921875,0.129889898811243
13.0,0.7624073862798372
13.0078125,2.0858285908295113
13.015625,2.2999114327419585
13.0234375,0.09096574573625259
13.03125,-0.30800682328239914
13.0390625,0.10069678400500018
13.046875,0.1396209370799906
13.0546875,0.09096574573625259
13.0625,0.03257951612376697
13.0703125,-0.03553775175746625
13.078125,-0.07446190483245665
13.0859375,-0.1815033257886803
13.09375,-0.2204274788636707
13.1015625,-0.2204274788636707
13.109375,-0.2398895554011659
13.1171875,-0.1425791727136899
13.125,-0.07446190483245665
13.1328125,-0.05499982829496145
13.140625,-0.03553775175746625
13.1484375,-0.006344636951223438
13.15625,0.02284847785501937
13.1640625,0.0033864013175241643
13.171875,0.09096574573625259
13.1796875,0.1493519753487382
13.1875,0.18827612842372862
13.1953125,0.2077382049612238
13.203125,0.23693131976746662
13.2109375,0.26612443457370943
13.21875,0.25639339630496183
13.2265625,0.28558651111120464
13.234375,0.31477962591744746
13.2421875,0.45101416167991387
13.25,0.5385935060986423
13.2578125,0.6748280418611088
13.265625,0.742945309742342
13.2734375,0.7526763480110896
13.28125,0.7721384245485847
13.2890625,0.694290118398604
13.296875,0.6748280418611088
13.3046875,0.5385935060986423
13.3125,0.43155208514241866
13.3203125,0.30504858764869985
13.328125,0.17854509015498102
13.3359375,0.1396209370799906
13.34375,0.07150366919875738
13.3515625,0.013117439586271767
13.359375,-0.05499982829496145
13.3671875,-0.05499982829496145
13.375,-0.03553775175746625
13.3828125,-0.07446190483245665
13.390625,-0.016075675219971042
13.3984375,-0.006344636951223438
13.40625,0.013117439586271767
13.4140625,-0.05499982829496145
13.421875,-0.05499982829496145
13.4296875,-0.025806713488718644
13.4375,-0.05499982829496145
13.4453125,0.0033864013175241643
13.453125,-0.04526879002621385
13.4609375,-0.03553775175746625
13.46875,-0.04526879002621385
13.4765625,-0.016075675219971042
13.484375,-0.006344636951223438
13.4921875,0.013117439586271767
13.5,0.02284847785501937
13.5078125,0.04231055439251458
13.515625,0.06177263093000978
13.5234375,0.02284847785501937
13.53125,0.013117439586271767
13.5390625,-0.006344636951223438
13.546875,0.02284847785501937
13.5546875,0.05204159266126218
13.5625,0.04231055439251458
13.5703125,-0.07446190483245665
13.578125,-0.11338605790744707
13.5859375,-0.09392398136995188
13.59375,-0.09392398136995188
13.6015625,-0.07446190483245665
13.609375,-0.1425791727136899
13.6171875,-0.1717722875199327
13.625,-0.2106964405949231
13.6328125,-0.2106964405949231
13.640625,-0.2009654023261755
13.6484375,-0.2204274788636707
13.65625,-0.1815033257886803
13.6640625,-0.1912343640574279
13.671875,-0.10365501963869947
13.6796875,-0.10365501963869947
13.6875,-0.12311709617619468
13.6953125,-0.07446190483245665
13.703125,-0.1523102109824375
13.7109375,-0.06473086656370905
13.71875,-0.05499982829496145
13.7265625,0.02284847785501937
13.734375,0.013117439586271767
13.7421875,-0.03553775175746625
13.75,-0.04526879002621385
13.7578125,-0.09392398136995188
13.765625,-0.13284813444494228
13.7734375,-0.1523102109824375
13.78125,-0.1523102109824375
13.7890625,-0.1815033257886803
13.796875,-0.1523102109824375
13.8046875,-0.11338605790744707
13.8125,-0.11338605790744707
13.8203125,0.08123470746750498
13.828125,0.6650970035923611
13.8359375,1.9787871698732877
13.84375,2.5529184277293964
13.8515625,0.5191314295611471
13.859375,-0.46370343558236077
13.8671875,-0.06473086656370905
13.875,0.03257951612376697
13.8828125,-0.016075675219971042
13.890625,-0.06473086656370905
13.8984375,-0.1425791727136899
13.90625,-0.1717722875199327
13.9140625,-0.2204274788636707
13.921875,-0.2204274788636707
13.9296875,-0.2301585171324183
13.9375,-0.2009654023261755
13.9453125,-0.1523102109824375
13.953125,-0.1425791727136899
13.9609375,-0.11338605790744707
13.96875,-0.05499982829496145
13.9765625,0.0033864013175241643
13.984375,-0.025806713488718644
13.9921875,-0.04526879002621385
14.0,0.02284847785501937
14.0078125,0.06177263093000978
14.015625,0.1396209370799906
14.0234375,0.129889898811243
14.03125,0.1493519753487382
14.0390625,0.2174692432299714
14.046875,0.25639339630496183
14.0546875,0.33424170245494267
14.0625,0.3537037789924379
14.0703125,0.39262793206742824
14.078125,0.5385935060986423
14.0859375,0.596979735711128
14.09375,0.6748280418611088
14.1015625,0.742945309742342
14.109375,0.8110625776235751
14.1171875,0.8013315393548276
14.125,0.6067107739798755
14.1328125,0.44128312341116627
14.140625,0.28558651111120464
14.1484375,0.24666235803621422
14.15625,0.129889898811243
14.1640625,-0.04526879002621385
14.171875,-0.06473086656370905
14.1796875,-0.1620412492511851
14.1875,-0.1425791727136899
14.1953125,-0.1912343640574279
14.203125,-0.2398895554011659
14.2109375,-0.2301585171324183
14.21875,-0.2204274788636707
14.2265625,-0.1912343640574279
14.234375,-0.13284813444494228
14.2421875,-0.10365501963869947
14.25,-0.016075675219971042
14.2578125,-0.025806713488718644
14.265625,-0.016075675219971042
14.2734375,0.03257951612376697
14.28125,-0.06473086656370905
14.2890625,0.06177263093000978
14.296875,0.03257951612376697
14.3046875,0.0033864013175241643
14.3125,0.0033864013175241643
14.3203125,-0.025806713488718644
14.328125,-0.006344636951223438
14.3359375,-0.05499982829496145
14.34375,-0.09392398136995188
14.3515625,-0.10365501963869947
14.359375,-0.13284813444494228
14.3671875,-0.1425791727136899
14.375,-0.2301585171324183
14.3828125,-0.33719993808864196
14.390625,-0.29827578501365154
14.3984375,-0.28854474674490393
14.40625,-0.2009654023261755
14.4140625,-0.1620412492511851
14.421875,-0.1523102109824375
14.4296875,-0.08419294310120427
14.4375,-0.10365501963869947
14.4453125,-0.05499982829496145
14.453125,-0.06473086656370905
14.4609375,-0.05499982829496145
14.46875,-0.04526879002621385
14.4765625,-0.07446190483245665
14.484375,-0.10365501963869947
14.4921875,-0.12311709617619468
14.5,-0.12311709617619468
14.5078125,-0.10365501963869947
14.515625,-0.08419294310120427
14.5234375,-0.1717722875199327
14.53125,-0.2204274788636707
14.5390625,-0.2593516319386611
14.546875,-0.2009654023261755
14.5546875,-0.2106964405949231
14.5625,-0.24962059366991352
14.5703125,-0.1815033257886803
14.578125,-0.1815033257886803
14.5859375,-0.12311709617619468
14.59375,0.03257951612376697
14.6015625,0.5872486974423803
14.609375,1.7549732896920929
14.6171875,2.290180394473211
14.625,0.5775176591736327
14.6328125,-0.35666201462613717
14.640625,-0.11338605790744707
14.6484375,0.0033864013175241643
14.65625,-0.07446190483245665
14.6640625,-0.12311709617619468
14.671875,-0.2301585171324183
14.6796875,-0.2204274788636707
14.6875,-0.2106964405949231
14.6953125,-0.2204274788636707
14.703125,-0.1815033257886803
14.7109375,-0.2106964405949231
14.71875,-0.1912343640574279
14.7265625,-0.1717722875199327
14.734375,-0.13284813444494228
14.7421875,-0.07446190483245665
14.75,-0.025806713488718644
14.7578125,-0.04526879002621385
14.765625,0.03257951612376697
14.7734375,0.03257951612376697
14.78125,0.1590830136174858
14.7890625,0.09096574573625259
14.796875,0.1396209370799906
14.8046875,0.1493519753487382
14.8125,0.17854509015498102
14.8203125,0.2174692432299714
14.828125,0.23693131976746662
14.8359375,0.24666235803621422
14.84375,0.30504858764869985
14.8515625,0.42182104687367106
14.859375,0.5580555826361375
14.8671875,0.6261728505173707
14.875,0.6748280418611088
14.8828125,0.7137521949360992
14.890625,0.6261728505173707
14.8984375,0.6067107739798755
14.90625,0.45101416167991387
14.9140625,0.33424170245494267
14.921875,0.1688140518862334
14.9296875,0.06177263093000978
14.9375,-0.025806713488718644
14.9453125,-0.06473086656370905
14.953125,-0.11338605790744707
14.9609375,-0.1425791727136899
14.96875,-0.2106964405949231
14.9765625,-0.2204274788636707
14.984375,-0.24962059366991352
14.9921875,-0.2301585171324183
15.0,-0.2106964405949231
15.0078125,-0.1717722875199327
15.015625,-0.07446190483245665
15.0234375,-0.07446190483245665
15.03125,-0.016075675219971042
15.0390625,-0.025806713488718644
15.046875,0.02284847785501937
15.0546875,-0.016075675219971042
15.0625,0.03257951612376697
15.0703125,-0.03553775175746625
15.078125,-0.05499982829496145
15.0859375,-0.07446190483245665
15.09375,-0.08419294310120427
15.1015625,-0.07446190483245665
15.109375,-0.09392398136995188
15.1171875,-0.11338605790744707
15.125,-0.1717722875199327
15.1328125,-0.1815033257886803
15.140625,-0.2009654023261755
15.1484375,-0.2301585171324183
15.15625,-0.28854474674490393
15.1640625,-0.2593516319386611
15.171875,-0.34693097635738956
15.1796875,-0.2593516319386611
15.1875,-0.28854474674490393
15.1953125,-0.29827578501365154
15.203125,-0.30800682328239914
15.2109375,-0.24962059366991352
15.21875,-0.1815033257886803
15.2265625,-0.1620412492511851
15.234375,-0.1425791727136899
15.2421875,-0.1620412492511851
15.25,-0.09392398136995188
15.2578125,-0.1620412492511851
15.265625,-0.13284813444494228
15.2734375,-0.1815033257886803
15.28125,-0.1815033257886803
15.2890625,-0.1815033257886803
15.296875,-0.1912343640574279
15.3046875,-0.2009654023261755
15.3125,-0.2106964405949231
15.3203125,-0.2301585171324183
15.328125,-0.2106964405949231
15.3359375,-0.27881370847615633
15.34375,-0.31773786155114675
15.3515625,-0.28854474674490393
15.359375,-0.34693097635738956
15.3671875,-0.2593516319386611
15.375,-0.32746889981989435
15.3828125,-0.31773786155114675
15.390625,-0.2398895554011659
15.3984375,-0.2204274788636707
15.40625,-0.09392398136995188
15.4140625,-0.08419294310120427
15.421875,-0.03553775175746625
15.4296875,0.07150366919875738
15.4375,0.5385935060986423
15.4453125,1.5603525243171408
15.453125,2.1539458587107445
15.4609375,0.5677866209048851
15.46875,-0.4928965503886036
15.4765625,-0.1425791727136899
15.484375,-0.09392398136995188
15.4921875,-0.025806713488718644
15.5,-0.1425791727136899
15.5078125,-0.24962059366991352
15.515625,-0.24962059366991352
15.5234375,-0.2106964405949231
15.53125,-0.2398895554011659
15.5390625,-0.2690826702074087
15.546875,-0.30800682328239914
15.5546875,-0.28854474674490393
15.5625,-0.27881370847615633
15.5703125,-0.32746889981989435
15.578125,-0.29827578501365154
15.5859375,-0.2593516319386611
15.59375,-0.11338605790744707
15.6015625,-0.09392398136995188
15.609375,-0.03553775175746625
15.6171875,-0.016075675219971042
15.625,-0.016075675219971042
15.6328125,0.04231055439251458
15.640625,0.04231055439251458
15.6484375,0.09096574573625259
15.65625,0.07150366919875738
15.6640625,0.1980071666924762
15.671875,0.31477962591744746
15.6796875,0.38289689379868064
15.6875,0.43155208514241866
15.6953125,0.4607451999486615
15.703125,0.5094003912923994
15.7109375,0.5677866209048851
15.71875,0.5677866209048851
15.7265625,0.4802072764861567
15.734375,0.44128312341116627
15.7421875,0.30504858764869985
15.75,0.22720028149871901
15.7578125,0.129889898811243
15.765625,0.11042782227374778
15.7734375,0.04231055439251458
15.78125,-0.025806713488718644
15.7890625,-0.03553775175746625
15.796875,-0.09392398136995188
15.8046875,-0.13284813444494228
15.8125,-0.1620412492511851
15.8203125,-0.1815033257886803
15.828125,-0.2301585171324183
15.8359375,-0.2009654023261755
15.84375,-0.1912343640574279
15.8515625,-0.1815033257886803
15.859375,-0.1620412492511851
15.8671875,-0.1620412492511851
15.875,-0.1620412492511851
15.8828125,-0.1912343640574279
15.890625,-0.1523102109824375
15.8984375,-0.1815033257886803
15.90625,-0.10365501963869947
15.9140625,-0.1620412492511851
15.921875,-0.10365501963869947
15.9296875,-0.05499982829496145
15.9375,-0.025806713488718644
15.9453125,-0.07446190483245665
15.953125,-0.10365501963869947
15.9609375,-0.1620412492511851
15.96875,-0.2398895554011659
15.9765625,-0.28854474674490393
15.984375,-0.30800682328239914
15.9921875,-0.27881370847615633
16.0,-0.27881370847615633
16.0078125,-0.2106964405949231
16.015625,-0.33719993808864196
16.0234375,-0.28854474674490393
16.03125,-0.27881370847615633
16.0390625,-0.2398895554011659
16.046875,-0.2398895554011659
16.0546875,-0.2106964405949231
16.0625,-0.2204274788636707
16.0703125,-0.1912343640574279
16.078125,-0.1912343640574279
16.0859375,-0.13284813444494228
16.09375,-0.12311709617619468
16.1015625,-0.05499982829496145
16.109375,-0.1620412492511851
16.1171875,-0.2009654023261755
16.125,-0.2593516319386611
16.1328125,-0.31773786155114675
16.140625,-0.31773786155114675
16.1484375,-0.33719993808864196
16.15625,-0.34693097635738956
16.1640625,-0.35666201462613717
16.171875,-0.483165512119856
16.1796875,-0.39558616770112753
16.1875,-0.025806713488718644
16.1953125,0.986221266461032
16.203125,2.3485666240856964
16.2109375,0.7916005010860799
16.21875,-0.6583242009573128
16.2265625,-0.2009654023261755
16.234375,0.013117439586271767
16.2421875,-0.006344636951223438
16.25,-0.04526879002621385
16.2578125,-0.025806713488718644
16.265625,-0.05499982829496145
16.2734375,-0.10365501963869947
16.28125,-0.1425791727136899
16.2890625,-0.2398895554011659
16.296875,-0.2301585171324183
16.3046875,-0.33719993808864196
16.3125,-0.3663930528948848
16.3203125,-0.41504824423862274
16.328125,-0.3663930528948848
16.3359375,-0.30800682328239914
16.34375,-0.2398895554011659
16.3515625,-0.2398895554011659
16.359375,-0.1523102109824375
16.3671875,-0.11338605790744707
16.375,-0.016075675219971042
16.3828125,0.07150366919875738
16.390625,0.1493519753487382
16.3984375,0.23693131976746662
16.40625,0.32451066418619506
16.4140625,0.32451066418619506
16.421875,0.43155208514241866
16.4296875,0.41209000860492345
16.4375,0.4704762382174091
16.4453125,0.45101416167991387
16.453125,0.42182104687367106
16.4609375,0.43155208514241866
16.46875,0.4899383147549043
16.4765625,0.42182104687367106
16.484375,0.3634348172611855
16.4921875,0.2077382049612238
16.5,0.1396209370799906
16.5078125,0.02284847785501937
16.515625,-0.025806713488718644
16.5234375,-0.11338605790744707
16.53125,-0.13284813444494228
16.5390625,-0.11338605790744707
16.546875,-0.08419294310120427
16.5546875,-0.08419294310120427
16.5625,-0.05499982829496145
16.5703125,-0.07446190483245665
16.578125,-0.03553775175746625
16.5859375,-0.09392398136995188
16.59375,-0.09392398136995188
16.6015625,-0.1523102109824375
16.609375,-0.1815033257886803
16.6171875,-0.24962059366991352
16.625,-0.2204274788636707
16.6328125,-0.2593516319386611
16.640625,-0.2204274788636707
16.6484375,-0.2398895554011659
16.65625,-0.24962059366991352
16.6640625,-0.2398895554011659
16.671875,-0.2398895554011659
16.6796875,-0.24962059366991352
16.6875,-0.2106964405949231
16.6953125,-0.2593516319386611
16.703125,-0.1620412492511851
16.7109375,-0.1912343640574279
16.71875,-0.1523102109824375
16.7265625,-0.1815033257886803
16.734375,-0.2009654023261755
16.7421875,-0.1815033257886803
16.75,-0.1912343640574279
16.7578125,-0.2204274788636707
16.765625,-0.1912343640574279
16.7734375,-0.2106964405949231
16.78125,-0.2301585171324183
16.7890625,-0.28854474674490393
16.796875,-0.2398895554011659
16.8046875,-0.2204274788636707
16.8125,-0.2301585171324183
16.8203125,-0.2398895554011659
16.828125,-0.24962059366991352
16.8359375,-0.2398895554011659
16.84375,0.04231055439251458
16.8515625,0.7818694628173324
16.859375,2.066366514292016
16.8671875,1.48250421816716
16.875,-0.32746889981989435
16.8828125,-0.45397239731361316
16.890625,-0.12311709617619468
16.8984375,-0.1523102109824375
16.90625,-0.10365501963869947
16.9140625,-0.24962059366991352
16.921875,-0.28854474674490393
16.9296875,-0.34693097635738956
16.9375,-0.35666201462613717
16.9453125,-0.2593516319386611
16.953125,-0.1912343640574279
16.9609375,-0.1815033257886803
16.96875,-0.1620412492511851
16.9765625,-0.1815033257886803
16.984375,-0.09392398136995188
16.9921875,-0.08419294310120427
17.0,-0.05499982829496145
17.0078125,-0.05499982829496145
17.015625,-0.016075675219971042
17.0234375,-0.006344636951223438
17.03125,-0.006344636951223438
17.0390625,-0.06473086656370905
17.046875,-0.05499982829496145
17.0546875,-0.06473086656370905
17.0625,0.0033864013175241643
17.0703125,0.129889898811243
17.078125,0.24666235803621422
17.0859375,0.32451066418619506
17.09375,0.44128312341116627
17.1015625,0.5580555826361375
17.109375,0.7137521949360992
17.1171875,0.7526763480110896
17.125,0.7526763480110896
17.1328125,0.6845590801298563
17.140625,0.5580555826361375
17.1484375,0.5288624678298947
17.15625,0.39262793206742824
17.1640625,0.32451066418619506
17.171875,0.09096574573625259
17.1796875,-0.09392398136995188
17.1875,-0.1425791727136899
17.1953125,-0.1717722875199327
17.203125,-0.2106964405949231
17.2109375,-0.24962059366991352
17.21875,-0.29827578501365154
17.2265625,-0.29827578501365154
17.234375,-0.30800682328239914
17.2421875,-0.29827578501365154
17.25,-0.29827578501365154
17.2578125,-0.2690826702074087
17.265625,-0.30800682328239914
17.2734375,-0.2009654023261755
17.28125,-0.2690826702074087
17.2890625,-0.1523102109824375
17.296875,-0.12311709617619468
17.3046875,-0.09392398136995188
17.3125,-0.05499982829496145
17.3203125,-0.05499982829496145
17.328125,-0.04526879002621385
17.3359375,-0.04526879002621385
17.34375,-0.10365501963869947
17.3515625,-0.06473086656370905
17.359375,-0.12311709617619468
17.3671875,-0.11338605790744707
17.375,-0.1425791727136899
17.3828125,-0.1620412492511851
17.390625,-0.2009654023261755
17.3984375,-0.12311709617619468
17.40625,-0.1717722875199327
17.4140625,-0.12311709617619468
17.421875,-0.12311709617619468
17.4296875,-0.1717722875199327
17.4375,-0.2398895554011659
17.4453125,-0.24962059366991352
17.453125,-0.28854474674490393
17.4609375,-0.31773786155114675
17.46875,-0.33719993808864196
17.4765625,-0.28854474674490393
17.484375,-0.35666201462613717
17.4921875,-0.33719993808864196
17.5,-0.39558616770112753
17.5078125,-0.29827578501365154
17.515625,-0.2690826702074087
17.5234375,-0.1620412492511851
17.53125,-0.1815033257886803
17.5390625,-0.1815033257886803
17.546875,-0.2009654023261755
17.5546875,-0.1815033257886803
17.5625,-0.10365501963869947
17.5703125,-0.04526879002621385
17.578125,-0.05499982829496145
17.5859375,-0.07446190483245665
17.59375,-0.1620412492511851
17.6015625,-0.08419294310120427
17.609375,-0.1815033257886803
17.6171875,-0.1717722875199327
17.625,-0.2593516319386611
17.6328125,-0.29827578501365154
17.640625,-0.31773786155114675
17.6484375,-0.32746889981989435
17.65625,-0.33719993808864196
17.6640625,-0.27881370847615633
17.671875,-0.30800682328239914
17.6796875,-0.1912343640574279
17.6875,-0.006344636951223438
17.6953125,0.694290118398604
17.703125,1.8912078254545592
17.7109375,2.4945321981169104
17.71875,-0.025806713488718644
17.7265625,-0.5610138182698368
17.734375,-0.05499982829496145
17.7421875,0.03257951612376697
17.75,0.013117439586271767
17.7578125,-0.04526879002621385
17.765625,-0.08419294310120427
17.7734375,-0.12311709617619468
17.78125,-0.1620412492511851
17.7890625,-0.1912343640574279
17.796875,-0.2301585171324183
17.8046875,-0.1912343640574279
17.8125,-0.2690826702074087
17.8203125,-0.2398895554011659
17.828125,-0.2593516319386611
17.8359375,-0.2690826702074087
17.84375,-0.2690826702074087
17.8515625,-0.2593516319386611
17.859375,-0.2009654023261755
17.8671875,-0.03553775175746625
17.875,0.04231055439251458
17.8828125,0.1590830136174858
17.890625,0.22720028149871901
17.8984375,0.30504858764869985
17.90625,0.30504858764869985
17.9140625,0.3731658555299331
17.921875,0.3439727407236903
17.9296875,0.4899383147549043
17.9375,0.4704762382174091
17.9453125,0.5094003912923994
17.953125,0.5288624678298947
17.9609375,0.5580555826361375
17.96875,0.5677866209048851
17.9765625,0.5191314295611471
17.984375,0.4802072764861567
17.9921875,0.40235897033617585
18.0,0.27585547284245704
18.0078125,0.2077382049612238
18.015625,0.08123470746750498
18.0234375,0.04231055439251458
18.03125,-0.016075675219971042
18.0390625,-0.025806713488718644
18.046875,0.02284847785501937
18.0546875,0.06177263093000978
18.0625,0.05204159266126218
18.0703125,0.013117439586271767
18.078125,-0.016075675219971042
18.0859375,-0.03553775175746625
18.09375,-0.05499982829496145
18.1015625,-0.10365501963869947
18.109375,-0.13284813444494228
18.1171875,-0.2009654023261755
18.125,-0.2593516319386611
18.1328125,-0.1717722875199327
18.140625,-0.1717722875199327
18.1484375,-0.13284813444494228
18.15625,-0.11338605790744707
18.1640625,-0.13284813444494228
18.171875,-0.05499982829496145
18.1796875,-0.07446190483245665
18.1875,-0.025806713488718644
18.1953125,-0.016075675219971042
18.203125,-0.006344636951223438
18.2109375,0.03257951612376697
18.21875,0.03257951612376697
18.2265625,-0.025806713488718644
18.234375,-0.05499982829496145
18.2421875,-0.11338605790744707
18.25,-0.12311709617619468
18.2578125,-0.33719993808864196
18.265625,-0.3761240911636324
18.2734375,-0.33719993808864196
18.28125,-0.30800682328239914
18.2890625,-0.29827578501365154
18.296875,-0.2690826702074087
18.3046875,-0.28854474674490393
18.3125,-0.2398895554011659
18.3203125,-0.27881370847615633
18.328125,-0.2009654023261755
18.3359375,-0.2106964405949231
18.34375,-0.1523102109824375
18.3515625,-0.1425791727136899
18.359375,-0.12311709617619468
18.3671875,-0.07446190483245665
18.375,-0.06473086656370905
18.3828125,-0.13284813444494228
18.390625,-0.1717722875199327
18.3984375,-0.2204274788636707
18.40625,-0.1912343640574279
18.4140625,-0.1523102109824375
18.421875,-0.1620412492511851
18.4296875,-0.1717722875199327
18.4375,-0.2009654023261755
18.4453125,-0.2106964405949231
18.453125,-0.2301585171324183
18.4609375,-0.2106964405949231
18.46875,-0.24962059366991352
18.4765625,-0.2593516319386611
18.484375,-0.2690826702074087
18.4921875,-0.1912343640574279
18.5,-0.2301585171324183
18.5078125,-0.2398895554011659
18.515625,-0.30800682328239914
18.5234375,-0.31773786155114675
18.53125,-0.2690826702074087
18.5390625,-0.1815033257886803
18.546875,-0.13284813444494228
18.5546875,-0.13284813444494228
18.5625,-0.10365501963869947
18.5703125,-0.1425791727136899
18.578125,-0.08419294310120427
18.5859375,0.11042782227374778
18.59375,1.1127247639547508
18.6015625,2.1928700117857347
18.609375,1.385193835479684
18.6171875,-0.4734344738511084
18.625,-0.41504824423862274
18.6328125,-0.1717722875199327
18.640625,-0.1620412492511851
18.6484375,-0.2301585171324183
18.65625,-0.33719993808864196
18.6640625,-0.41504824423862274
18.671875,-0.40531720596987514
18.6796875,-0.29827578501365154
18.6875,-0.1912343640574279
18.6953125,-0.1620412492511851
18.703125,-0.1717722875199327
18.7109375,-0.10365501963869947
18.71875,-0.1815033257886803
18.7265625,-0.08419294310120427
18.734375,-0.1425791727136899
18.7421875,-0.11338605790744707
18.75,-0.12311709617619468
18.7578125,-0.10365501963869947
18.765625,-0.06473086656370905
18.7734375,-0.05499982829496145
18.78125,-0.03553775175746625
18.7890625,0.03257951612376697
18.796875,0.05204159266126218
18.8046875,0.1590830136174858
18.8125,0.12015886054249539
18.8203125,0.09096574573625259
18.828125,0.129889898811243
18.8359375,0.18827612842372862
18.84375,0.43155208514241866
18.8515625,0.5094003912923994
18.859375,0.5677866209048851
18.8671875,0.5872486974423803
18.875,0.5775176591736327
18.8828125,0.5775176591736327
18.890625,0.4802072764861567
18.8984375,0.33424170245494267
18.90625,0.23693131976746662
18.9140625,0.08123470746750498
18.921875,0.04231055439251458
18.9296875,-0.04526879002621385
18.9375,-0.08419294310120427
18.9453125,-0.12311709617619468
18.953125,-0.13284813444494228
18.9609375,-0.1912343640574279
18.96875,-0.2106964405949231
18.9765625,-0.1717722875199327
18.984375,-0.13284813444494228
18.9921875,-0.1717722875199327
19.0,-0.12311709617619468
19.0078125,-0.1815033257886803
19.015625,-0.1815033257886803
19.0234375,-0.1815033257886803
19.03125,-0.1620412492511851
19.0390625,-0.13284813444494228
19.046875,-0.13284813444494228
19.0546875,-0.1523102109824375
19.0625,-0.1620412492511851
19.0703125,-0.1815033257886803
19.078125,-0.1717722875199327
19.0859375,-0.1523102109824375
19.09375,-0.1620412492511851
19.1015625,-0.1620412492511851
19.109375,-0.1620412492511851
19.1171875,-0.2106964405949231
19.125,-0.2204274788636707
19.1328125,-0.1717722875199327
19.140625,-0.1717722875199327
19.1484375,-0.2398895554011659
19.15625,-0.1620412492511851
19.1640625,0.25639339630496183
19.171875,1.3754627972109363
19.1796875,2.0469044377545207
19.1875,0.596979735711128
19.1953125,-0.31773786155114675
19.203125,-0.06473086656370905
19.2109375,-0.03553775175746625
19.21875,-0.08419294310120427
19.2265625,-0.1523102109824375
19.234375,-0.1717722875199327
19.2421875,-0.1523102109824375
19.25,-0.09392398136995188
19.2578125,-0.10365501963869947
19.265625,-0.08419294310120427
19.2734375,-0.1523102109824375
19.28125,-0.1912343640574279
19.2890625,-0.1620412492511851
19.296875,-0.2009654023261755
19.3046875,-0.2398895554011659
19.3125,-0.2593516319386611
19.3203125,-0.28854474674490393
19.328125,-0.24962059366991352
19.3359375,-0.1815033257886803
19.34375,-0.10365501963869947
19.3515625,-0.05499982829496145
19.359375,0.03257951612376697
19.3671875,0.07150366919875738
19.375,0.1590830136174858
19.3828125,0.22720028149871901
19.390625,0.30504858764869985
19.3984375,0.38289689379868064
19.40625,0.45101416167991387
19.4140625,0.5775176591736327
19.421875,0.6456349270548659
19.4296875,0.694290118398604
19.4375,0.6845590801298563
19.4453125,0.6067107739798755
19.453125,0.5094003912923994
19.4609375,0.3537037789924379
19.46875,0.18827612842372862
19.4765625,0.013117439586271767
19.484375,-0.11338605790744707
19.4921875,-0.1717722875199327
19.5,-0.2009654023261755
19.5078125,-0.1912343640574279
19.515625,-0.1717722875199327
19.5234375,-0.1815033257886803
19.53125,-0.2009654023261755
19.5390625,-0.2106964405949231
19.546875,-0.2301585171324183
19.5546875,-0.2301585171324183
19.5625,-0.2301585171324183
19.5703125,-0.2301585171324183
19.578125,-0.1815033257886803
19.5859375,-0.1815033257886803
19.59375,-0.1620412492511851
19.6015625,-0.13284813444494228
19.609375,-0.12311709617619468
19.6171875,-0.1717722875199327
19.625,-0.11338605790744707
19.6328125,-0.12311709617619468
19.640625,-0.1425791727136899
19.6484375,-0.1523102109824375
19.65625,-0.2106964405949231
19.6640625,-0.2106964405949231
19.671875,-0.1815033257886803
19.6796875,-0.1912343640574279
19.6875,-0.1717722875199327
19.6953125,-0.2593516319386611
19.703125,-0.1912343640574279
19.7109375,-0.24962059366991352
19.71875,-0.2106964405949231
19.7265625,-0.2204274788636707
19.734375,-0.2106964405949231
19.7421875,-0.1912343640574279
19.75,-0.1717722875199327
19.7578125,-0.1912343640574279
19.765625,-0.1620412492511851
19.7734375,-0.1717722875199327
19.78125,-0.2204274788636707
19.7890625,-0.2204274788636707
19.796875,-0.2301585171324183
19.8046875,-0.2593516319386611
19.8125,-0.2690826702074087
19.8203125,-0.33719993808864196
19.828125,-0.24962059366991352
19.8359375,-0.30800682328239914
19.84375,-0.30800682328239914
19.8515625,-0.28854474674490393
19.859375,-0.29827578501365154
19.8671875,-0.2398895554011659
19.875,-0.1815033257886803
19.8828125,-0.2106964405949231
19.890625,-0.1620412492511851
19.8984375,-0.006344636951223438
19.90625,0.6845590801298563
19.9140625,2.0079802846795305
19.921875,2.027442361217026
19.9296875,-0.1620412492511851
19.9375,-0.6096690096135748
19.9453125,-0.2593516319386611
19.953125,-0.1523102109824375
19.9609375,-0.1717722875199327
19.96875,-0.2204274788636707
19.9765625,-0.28854474674490393
19.984375,-0.30800682328239914
19.9921875,-0.28854474674490393
20.0,-0.24962059366991352
20.0078125,-0.1717722875199327
20.015625,-0.1425791727136899
20.0234375,-0.13284813444494228
20.03125,-0.12311709617619468
20.0390625,-0.13284813444494228
20.046875,-0.11338605790744707
20.0546875,-0.08419294310120427
20.0625,-0.10365501963869947
20.0703125,-0.025806713488718644
20.078125,-0.025806713488718644
20.0859375,-0.016075675219971042
20.09375,-0.016075675219971042
20.1015625,0.0033864013175241643
20.109375,0.09096574573625259
20.1171875,0.1590830136174858
20.125,0.18827612842372862
20.1328125,0.24666235803621422
20.140625,0.26612443457370943
20.1484375,0.38289689379868064
20.15625,0.42182104687367106
20.1640625,0.5094003912923994
20.171875,0.4996693530236519
20.1796875,0.5580555826361375
20.1875,0.5677866209048851
20.1953125,0.5775176591736327
20.203125,0.5191314295611471
20.2109375,0.42182104687367106
20.21875,0.29531754937995225
20.2265625,0.24666235803621422
20.234375,0.18827612842372862
20.2421875,0.05204159266126218
20.25,-0.006344636951223438
20.2578125,-0.03553775175746625
20.265625,-0.05499982829496145
20.2734375,-0.09392398136995188
20.28125,-0.09392398136995188
20.2890625,-0.1620412492511851
20.296875,-0.11338605790744707
20.3046875,-0.1815033257886803
20.3125,-0.09392398136995188
20.3203125,-0.1717722875199327
20.328125,-0.1425791727136899
20.3359375,-0.1815033257886803
20.34375,-0.1425791727136899
20.3515625,-0.10365501963869947
20.359375,-0.06473086656370905
20.3671875,-0.025806713488718644
20.375,0.02284847785501937
20.3828125,-0.03553775175746625
20.390625,0.0033864013175241643
20.3984375,-0.03553775175746625
20.40625,-0.006344636951223438
20.4140625,0.013117439586271767
20.421875,-0.04526879002621385
20.4296875,-0.03553775175746625
20.4375,-0.05499982829496145
20.4453125,-0.07446190483245665
20.453125,-0.11338605790744707
20.4609375,-0.13284813444494228
20.46875,-0.13284813444494228
20.4765625,-0.1523102109824375
20.484375,-0.1815033257886803
20.4921875,-0.1912343640574279
20.5,-0.2204274788636707
20.5078125,-0.12311709617619468
20.515625,-0.1425791727136899
20.5234375,-0.12311709617619468
20.53125,-0.2009654023261755
20.5390625,-0.2398895554011659
20.546875,-0.1717722875199327
20.5546875,-0.12311709617619468
20.5625,-0.1523102109824375
20.5703125,-0.13284813444494228
20.578125,-0.1912343640574279
20.5859375,-0.13284813444494228
20.59375,-0.2106964405949231
20.6015625,-0.1912343640574279
20.609375,-0.1912343640574279
20.6171875,-0.1912343640574279
20.625,-0.13284813444494228
20.6328125,-0.11338605790744707
20.640625,-0.1523102109824375
20.6484375,-0.11338605790744707
20.65625,0.07150366919875738
20.6640625,0.7526763480110896
20.671875,2.066366514292016
20.6796875,2.2512562413982207
20.6875,-0.09392398136995188
20.6953125,-0.5999379713448272
20.703125,-0.025806713488718644
20.7109375,-0.006344636951223438
20.71875,-0.006344636951223438
20.7265625,-0.04526879002621385
20.734375,-0.08419294310120427
20.7421875,-0.05499982829496145
20.75,-0.04526879002621385
20.7578125,-0.06473086656370905
20.765625,-0.10365501963869947
20.7734375,-0.1523102109824375
20.78125,-0.12311709617619468
20.7890625,-0.1425791727136899
20.796875,-0.1717722875199327
20.8046875,-0.13284813444494228
20.8125,-0.2204274788636707
20.8203125,-0.1815033257886803
20.828125,-0.2204274788636707
20.8359375,-0.13284813444494228
20.84375,-0.04526879002621385
20.8515625,0.02284847785501937
20.859375,0.06177263093000978
20.8671875,0.11042782227374778
20.875,0.17854509015498102
20.8828125,0.25639339630496183
20.890625,0.30504858764869985
20.8984375,0.41209000860492345
20.90625,0.5094003912923994
20.9140625,0.5385935060986423
20.921875,0.596979735711128
20.9296875,0.5483245443673899
20.9375,0.6067107739798755
20.9453125,0.5288624678298947
20.953125,0.4704762382174091
20.9609375,0.33424170245494267
20.96875,0.33424170245494267
20.9765625,0.24666235803621422
20.984375,0.2077382049612238
20.9921875,0.17854509015498102
21.0,0.12015886054249539
21.0078125,0.07150366919875738
21.015625,0.05204159266126218
21.0234375,0.04231055439251458
21.03125,0.013117439586271767
21.0390625,0.02284847785501937
21.046875,-0.05499982829496145
21.0546875,-0.07446190483245665
21.0625,-0.1815033257886803
21.0703125,-0.2106964405949231
21.078125,-0.2204274788636707
21.0859375,-0.1620412492511851
21.09375,-0.1425791727136899
21.1015625,-0.11338605790744707
21.109375,-0.09392398136995188
21.1171875,-0.10365501963869947
21.125,-0.07446190483245665
21.1328125,-0.09392398136995188
21.140625,-0.05499982829496145
21.1484375,-0.05499982829496145
21.15625,-0.025806713488718644
21.1640625,-0.07446190483245665
21.171875,-0.06473086656370905
21.1796875,-0.11338605790744707
21.1875,-0.1717722875199327
21.1953125,-0.2690826702074087
21.203125,-0.2690826702074087
21.2109375,-0.1523102109824375
21.21875,-0.12311709617619468
21.2265625,-0.11338605790744707
21.234375,-0.07446190483245665
21.2421875,0.28558651111120464
21.25,1.1321868404922462
21.2578125,2.3680287006231917
21.265625,1.3170765675984506
21.2734375,-0.1912343640574279
21.28125,0.02284847785501937
21.2890625,0.07150366919875738
21.296875,0.05204159266126218
21.3046875,-0.016075675219971042
21.3125,-0.04526879002621385
21.3203125,-0.06473086656370905
21.328125,-0.07446190483245665
21.3359375,-0.11338605790744707
21.34375,-0.1523102109824375
21.3515625,-0.24962059366991352
21.359375,-0.27881370847615633
21.3671875,-0.2204274788636707
21.375,-0.2301585171324183
21.3828125,-0.2009654023261755
21.390625,-0.2204274788636707
21.3984375,-0.13284813444494228
21.40625,-0.07446190483245665
21.4140625,-0.03553775175746625
21.421875,-0.006344636951223438
21.4296875,-0.025806713488718644
21.4375,0.12015886054249539
21.4453125,0.1493519753487382
21.453125,0.22720028149871901
21.4609375,0.28558651111120464
21.46875,0.3439727407236903
21.4765625,0.44128312341116627
21.484375,0.5191314295611471
21.4921875,0.6261728505173707
21.5,0.5872486974423803
21.5078125,0.6067107739798755
21.515625,0.596979735711128
21.5234375,0.5872486974423803
21.53125,0.4802072764861567
21.5390625,0.3731658555299331
21.546875,0.23693131976746662
21.5546875,0.17854509015498102
21.5625,0.09096574573625259
21.5703125,0.0033864013175241643
21.578125,0.0033864013175241643
21.5859375,-0.025806713488718644
21.59375,-0.03553775175746625
21.6015625,-0.10365501963869947
21.609375,-0.1425791727136899
21.6171875,-0.1815033257886803
21.625,-0.1425791727136899
21.6328125,-0.1425791727136899
21.640625,-0.2301585171324183
21.6484375,-0.1912343640574279
21.65625,-0.24962059366991352
21.6640625,-0.13284813444494228
21.671875,-0.2106964405949231
21.6796875,-0.2009654023261755
21.6875,-0.1912343640574279
21.6953125,-0.2106964405949231
21.703125,-0.11338605790744707
21.7109375,-0.10365501963869947
21.71875,-0.05499982829496145
21.7265625,-0.05499982829496145
21.734375,-0.025806713488718644
21.7421875,0.0033864013175241643
21.75,0.0033864013175241643
21.7578125,-0.03553775175746625
21.765625,-0.07446190483245665
21.7734375,-0.04526879002621385
21.78125,-0.11338605790744707
21.7890625,-0.06473086656370905
21.796875,-0.13284813444494228
21.8046875,-0.2009654023261755
21.8125,-0.1620412492511851
21.8203125,-0.1815033257886803
21.828125,-0.2009654023261755
21.8359375,-0.2301585171324183
21.84375,-0.2009654023261755
21.8515625,-0.2106964405949231
21.859375,-0.2106964405949231
21.8671875,-0.2593516319386611
21.875,-0.2204274788636707
21.8828125,-0.2204274788636707
21.890625,-0.1425791727136899
21.8984375,-0.12311709617619468
21.90625,-0.12311709617619468
21.9140625,-0.10365501963869947
21.921875,-0.09392398136995188
21.9296875,-0.03553775175746625
21.9375,-0.05499982829496145
21.9453125,-0.06473086656370905
21.953125,-0.1717722875199327
21.9609375,-0.1717722875199327
21.96875,-0.1620412492511851
21.9765625,-0.1425791727136899
21.984375,-0.1425791727136899
21.9921875,-0.1523102109824375
22.0,-0.12311709617619468
22.0078125,-0.1912343640574279
22.015625,-0.1523102109824375
22.0234375,-0.1912343640574279
22.03125,-0.2009654023261755
22.0390625,-0.1620412492511851
22.046875,-0.1425791727136899
22.0546875,-0.1425791727136899
22.0625,-0.025806713488718644
22.0703125,0.39262793206742824
22.078125,1.404655912017179
22.0859375,2.309642471010706
22.09375,0.6164418122486232
22.1015625,-0.6680552392260605
22.109375,-0.1620412492511851
22.1171875,0.08123470746750498
22.125,0.07150366919875738
22.1328125,-0.03553775175746625
22.140625,-0.13284813444494228
22.1484375,-0.1425791727136899
22.15625,-0.11338605790744707
22.1640625,-0.1523102109824375
22.171875,-0.1620412492511851
22.1796875,-0.1815033257886803
22.1875,-0.1523102109824375
22.1953125,-0.1425791727136899
22.203125,-0.11338605790744707
22.2109375,-0.12311709617619468
22.21875,-0.016075675219971042
22.2265625,-0.03553775175746625
22.234375,0.03257951612376697
22.2421875,0.03257951612376697
22.25,0.10069678400500018
22.2578125,0.1590830136174858
22.265625,0.129889898811243
22.2734375,0.1590830136174858
22.28125,0.18827612842372862
22.2890625,0.2174692432299714
22.296875,0.22720028149871901
22.3046875,0.25639339630496183
22.3125,0.31477962591744746
22.3203125,0.3731658555299331
22.328125,0.3439727407236903
22.3359375,0.44128312341116627
22.34375,0.43155208514241866
22.3515625,0.5775176591736327
22.359375,0.5288624678298947
22.3671875,0.5288624678298947
22.375,0.45101416167991387
22.3828125,0.3634348172611855
22.390625,0.23693131976746662
22.3984375,0.1590830136174858
22.40625,0.1396209370799906
22.4140625,0.12015886054249539
22.421875,0.06177263093000978
22.4296875,0.05204159266126218
22.4375,0.0033864013175241643
22.4453125,-0.025806713488718644
22.453125,-0.016075675219971042
22.4609375,-0.06473086656370905
22.46875,-0.016075675219971042
22.4765625,-0.06473086656370905
22.484375,-0.025806713488718644
22.4921875,-0.04526879002621385
22.5,-0.04526879002621385
22.5078125,-0.03553775175746625
22.515625,0.05204159266126218
22.5234375,-0.006344636951223438
22.53125,-0.016075675219971042
22.5390625,-0.06473086656370905
22.546875,-0.10365501963869947
22.5546875,-0.09392398136995188
22.5625,-0.10365501963869947
22.5703125,-0.1912343640574279
22.578125,-0.2690826702074087
22.5859375,-0.2690826702074087
22.59375,-0.1425791727136899
22.6015625,-0.1912343640574279
22.609375,-0.1815033257886803
22.6171875,-0.1620412492511851
22.625,-0.1717722875199327
22.6328125,-0.1912343640574279
22.640625,-0.1912343640574279
22.6484375,-0.1523102109824375
22.65625,-0.2106964405949231
22.6640625,-0.2593516319386611
22.671875,-0.24962059366991352
22.6796875,-0.2593516319386611
22.6875,-0.24962059366991352
22.6953125,-0.2398895554011659
22.703125,-0.30800682328239914
22.7109375,-0.29827578501365154
22.71875,-0.29827578501365154
22.7265625,-0.2690826702074087
22.734375,-0.2593516319386611
22.7421875,-0.2009654023261755
22.75,-0.2398895554011659
22.7578125,-0.1717722875199327
22.765625,-0.1620412492511851
22.7734375,-0.1523102109824375
22.78125,-0.1912343640574279
22.7890625,-0.1620412492511851
22.796875,-0.1815033257886803
22.8046875,-0.24962059366991352
22.8125,-0.2593516319386611
22.8203125,-0.27881370847615633
22.828125,-0.34693097635738956
22.8359375,-0.28854474674490393
22.84375,-0.34693097635738956
22.8515625,-0.3663930528948848
22.859375,-0.4734344738511084
22.8671875,-0.29827578501365154
22.875,-0.24962059366991352
22.8828125,-0.2301585171324183
22.890625,-0.1912343640574279
22.8984375,-0.1717722875199327
22.90625,-0.1717722875199327
22.9140625,-0.1912343640574279
22.921875,-0.1620412492511851
22.9296875,-0.13284813444494228
22.9375,-0.1425791727136899
22.9453125,-0.1620412492511851
22.953125,-0.11338605790744707
22.9609375,-0.1425791727136899
22.96875,-0.1620412492511851
22.9765625,-0.2398895554011659
22.984375,-0.2204274788636707
22.9921875,-0.42477928250737035
23.0,-0.3761240911636324
23.0078125,-0.33719993808864196
23.015625,-0.28854474674490393
23.0234375,-0.2690826702074087
23.03125,-0.2301585171324183
23.0390625,-0.2106964405949231
23.046875,-0.1620412492511851
23.0546875,-0.1620412492511851
23.0625,-0.09392398136995188
23.0703125,-0.13284813444494228
23.078125,-0.08419294310120427
23.0859375,-0.07446190483245665
23.09375,-0.09392398136995188
23.1015625,-0.12311709617619468
23.109375,-0.06473086656370905
23.1171875,-0.10365501963869947
23.125,-0.1523102109824375
23.1328125,-0.2690826702074087
23.140625,0.0033864013175241643
23.1484375,1.2197661849109744
23.15625,2.2609872796669683
23.1640625,0.9667591899235368
23.171875,-0.6388621244198176
23.1796875,-0.34693097635738956
23.1875,-0.11338605790744707
23.1953125,-0.06473086656370905
23.203125,-0.09392398136995188
23.2109375,-0.06473086656370905
23.21875,-0.05499982829496145
23.2265625,-0.025806713488718644
23.234375,-0.04526879002621385
23.2421875,0.02284847785501937
23.25,-0.025806713488718644
23.2578125,-0.025806713488718644
23.265625,-0.07446190483245665
23.2734375,-0.10365501963869947
23.28125,-0.2009654023261755
23.2890625,-0.2301585171324183
23.296875,-0.28854474674490393
23.3046875,-0.27881370847615633
23.3125,-0.2398895554011659
23.3203125,-0.1717722875199327
23.328125,-0.11338605790744707
23.3359375,-0.10365501963869947
23.34375,-0.13284813444494228
23.3515625,0.013117439586271767
23.359375,-0.016075675219971042
23.3671875,0.1590830136174858
23.375,0.1590830136174858
23.3828125,0.27585547284245704
23.390625,0.25639339630496183
23.3984375,0.38289689379868064
23.40625,0.4607451999486615
23.4140625,0.4996693530236519
23.421875,0.5191314295611471
23.4296875,0.5288624678298947
