,0
0,-1.1007661536537374
1,-1.045363887641496
2,-1.003622454344602
3,-1.1538916142134206
4,-1.2297851292986828
5,-1.2525531838242614
6,-1.199427723264578
7,-1.197909852962873
8,-1.1903205014543465
9,-1.135677170592958
10,-1.0886231912400957
11,-1.0150064816073912
12,-1.2184011020358936
13,-1.269249757143019
14,-1.2517942486734086
15,-1.2168832317341882
16,-1.2108117505273674
17,-1.2191600371867461
18,-1.1531326790625682
19,-1.0954536075977688
20,-1.0559889797534328
21,-1.215365361432483
22,-1.291258876517745
23,-1.2684908219921662
24,-1.249517443220851
25,-1.2563478595785245
26,-1.2237136480918618
27,-1.1880436960017886
28,-1.1235342081793156
29,-1.0924178669943585
30,-1.2525531838242614
31,-1.333000309814639
32,-1.3185805419484393
33,-1.3223752177027024
34,-1.2996071631771238
35,-1.2700086922938716
36,-1.2282672589969774
37,-1.173623928135589
38,-1.1280878190844317
39,-1.2586246650310824
40,-1.3709470673572703
41,-1.3481790128316915
42,-1.3178216067975868
43,-1.3064375795347973
44,-1.2624193407853455
45,-1.2275083238461248
46,-1.1569273548168313
47,-1.129605689386137
48,-1.2662140165396085
49,-1.3428664667757235
50,-1.3322413746637862
51,-1.2867052656126294
52,-1.2904999413668925
53,-1.2829105898583661
54,-1.2449638323157353
55,-1.161480965721947
56,-1.173623928135589
57,-1.3261698934569655
58,-1.3496968831333969
59,-1.3185805419484393
60,-1.3269288286078178
61,-1.2783569789532505
62,-1.2563478595785245
63,-1.2039813341696937
64,-1.1690703172304728
65,-1.19715091781202
66,-1.3261698934569655
67,-1.3527326237368071
68,-1.3345181801163442
69,-1.3360360504180495
70,-1.3223752177027024
71,-1.2669729516904615
72,-1.2449638323157353
73,-1.185766890549231
74,-1.254829989276819
75,-1.3519736885859546
76,-1.3944740570337013
77,-1.3390717910214602
78,-1.3284466989095234
79,-1.3018839686296817
80,-1.2684908219921662
81,-1.2184011020358936
82,-1.159204160269389
83,-1.2464817026174404
84,-1.3360360504180495
85,-1.3717060025081227
86,-1.3307235043620813
87,-1.3284466989095234
88,-1.3094733201382078
89,-1.257106794729377
90,-1.2191600371867461
91,-1.1554094845151262
92,-1.175141798437294
93,-1.3163037364958816
94,-1.3777774837149437
95,-1.3284466989095234
96,-1.3147858661941763
97,-1.28974100621604
98,-1.2821516547075136
99,-1.1986687881137252
100,-1.175141798437294
101,-1.1106323106148215
102,-1.2609014704836403
103,-1.3117501255907655
104,-1.3322413746637862
105,-1.285187395310924
106,-1.2889820710651871
107,-1.261660405634493
108,-1.2176421668850406
109,-1.1804543444932625
110,-1.0984893482011795
111,-1.2844284601600715
112,-1.3200984122501447
113,-1.3178216067975868
114,-1.3117501255907655
115,-1.2639372110870508
116,-1.2191600371867461
117,-1.1850079553983783
118,-1.1455433275540419
119,-1.0446049524906431
120,-1.1683113820796205
121,-1.2859463304617769
122,-1.3216162825518498
123,-1.2760801735006926
124,-1.2760801735006926
125,-1.2487585080699983
126,-1.2077760099239567
127,-1.149338003308305
128,-1.0681319421670747
129,-1.0400513415855277
130,-1.177418603889852
131,-1.2578657298802298
132,-1.2821516547075136
133,-1.249517443220851
134,-1.2449638323157353
135,-1.2199189723375987
136,-1.1721060578338836
137,-1.0840695803349798
138,-1.0415692118872328
139,-1.015765416758244
140,-1.1963919826611675
141,-1.247240637768293
142,-1.225231518393567
143,-1.2168832317341882
144,-1.2047402693205462
145,-1.1667935117779153
146,-1.1204984675759053
147,-1.0423281470380856
148,-0.9641578265002658
149,-1.0681319421670747
150,-1.2244725832427144
151,-1.2259904535444197
152,-1.2077760099239567
153,-1.1850079553983783
154,-1.1721060578338836
155,-1.1364361057438106
156,-1.0605425906585484
157,-1.0089350004005704
158,-1.1607220305710944
159,-1.2479995729191453
160,-1.2798748492549556
161,-1.1895615663034937
162,-1.1629988360236523
163,-1.1447843924031893
164,-1.122016337877611
165,-1.0461228227923487
166,-0.9785775943664654
167,-1.177418603889852
168,-1.2836695250092185
169,-1.2920178116685979
170,-1.2259904535444197
171,-1.2343387402037986
172,-1.2017045287171357
173,-1.159204160269389
174,-1.1167037918216425
175,-1.0795159694298642
176,-1.2502763783717035
177,-1.327687763758671
178,-1.337553920719755
179,-1.3071965146856501
180,-1.3003660983279763
181,-1.2783569789532505
182,-1.2176421668850406
183,-1.1622399008727997
184,-1.1204984675759053
185,-1.3390717910214602
186,-1.3982687327879644
187,-1.3542504940385125
188,-1.337553920719755
189,-1.327687763758671
190,-1.2662140165396085
191,-1.2411691565614722
192,-1.1667935117779153
193,-1.2867052656126294
194,-1.3990276679388172
195,-1.4134474358050169
196,-1.3770185485640911
197,-1.373223872809828
198,-1.345143272228281
199,-1.2806337844058082
200,-1.2388923511089143
201,-1.2973303577245663
202,-1.4324208145763324
203,-1.4415280363865637
204,-1.412688500654164
205,-1.3914383164302913
206,-1.3967508624862592
207,-1.355009429189365
208,-1.2806337844058082
209,-1.2457227674665878
210,-1.4157242412575746
211,-1.4969303023988052
212,-1.525010902980352
213,-1.4642960909121423
214,-1.469608636968111
215,-1.427108268520364
216,-1.3997866030896697
217,-1.3481790128316915
218,-1.3618398455470386
219,-1.525010902980352
220,-1.570547012031509
221,-1.5546093738636042
222,-1.499207107851363
223,-1.4976892375496578
224,-1.4460816472916795
225,-1.4119295655033115
226,-1.3238930880044077
227,-1.4339386848780376
228,-1.5659934011263932
229,-1.579654233841741
230,-1.5083143296615944
231,-1.515144746019268
232,-1.5014839133039208
233,-1.456706739403616
234,-1.4035812788439328
235,-1.3846079000726172
236,-1.5121090054158575
237,-1.5735827526349195
238,-1.5735827526349195
239,-1.534877059941436
240,-1.509073264812447
241,-1.4658139612138477
242,-1.4180010467101327
243,-1.3345181801163442
244,-1.4779569236274896
245,-1.5515736332601937
246,-1.5842078447468564
247,-1.525010902980352
248,-1.509073264812447
249,-1.4984481727005103
250,-1.4316618794254798
251,-1.3944740570337013
252,-1.35349155888766
253,-1.5477789575059302
254,-1.5773774283891828
255,-1.5758595580874777
256,-1.540948541148257
257,-1.534877059941436
258,-1.4756801181749317
259,-1.4438048418391216
260,-1.3686702619047124
261,-1.3603219752453333
262,-1.5143858108684152
263,-1.5614397902212778
264,-1.5234930326786469
265,-1.5060375242090365
266,-1.4665728963647002
267,-1.452912063649353
268,-1.4028223436930802
269,-1.3496968831333969
270,-1.2882231359143346
271,-1.4900998860411314
272,-1.534877059941436
273,-1.4984481727005103
274,-1.465055026062995
275,-1.4445637769899744
276,-1.4339386848780376
277,-1.3808132243183542
278,-1.327687763758671
279,-1.365634521301302
280,-1.471126507269816
281,-1.51286794056671
282,-1.4407691012357111
283,-1.468849701817258
284,-1.4362154903305955
285,-1.3846079000726172
286,-1.3284466989095234
287,-1.3360360504180495
288,-1.4718854424206684
289,-1.493135626644542
290,-1.4840284048343104
291,-1.473403312722374
292,-1.4468405824425323
293,-1.4187599818609853
294,-1.3747417431115332
295,-1.3200984122501447
296,-1.3800542891675016
297,-1.4969303023988052
298,-1.5257698381312046
299,-1.4832694696834579
300,-1.4847873399851632
301,-1.4809926642309001
302,-1.4521531284985008
303,-1.363357715848744
304,-1.3443843370774284
305,-1.405099149145638
306,-1.5037607187564788
307,-1.5295645138854679
308,-1.456706739403616
309,-1.44911738789509
310,-1.4301440091237745
311,-1.4142063709558694
312,-1.3466611425299864
313,-1.2889820710651871
314,-1.3322413746637862
315,-1.4665728963647002
316,-1.4855462751360158
317,-1.4362154903305955
318,-1.4233135927661007
319,-1.4066170194473435
320,-1.369429197055565
321,-1.3163037364958816
322,-1.24344596201403
323,-1.3701881322064176
324,-1.4536709988002057
325,-1.4369744254814483
326,-1.412688500654164
327,-1.3815721594692068
328,-1.3686702619047124
329,-1.323134152853555
330,-1.2836695250092185
331,-1.1986687881137252
332,-1.3428664667757235
333,-1.4119295655033115
334,-1.4468405824425323
335,-1.405099149145638
336,-1.3823310946200593
337,-1.363357715848744
338,-1.3383128558706077
339,-1.2677318868413139
340,-1.1759007335881466
341,-1.2942946171211556
342,-1.4119295655033115
343,-1.4483584527442375
344,-1.3982687327879644
345,-1.3663934564521545
346,-1.35349155888766
347,-1.3155448013450288
348,-1.247240637768293
349,-1.193356242057757
350,-1.2449638323157353
351,-1.3808132243183542
352,-1.3914383164302913
353,-1.365634521301302
354,-1.329205634060376
355,-1.317062671646734
356,-1.261660405634493
357,-1.131882494838695
358,-1.058265785205991
359,-1.0795159694298642
360,-1.2669729516904615
361,-1.323134152853555
362,-1.2775980438023977
363,-1.2578657298802298
364,-1.2343387402037986
365,-1.2206779074884513
366,-1.1455433275540419
367,-1.111391245765674
368,-1.2404102214106194
369,-1.3390717910214602
370,-1.3314824395129339
371,-1.2829105898583661
372,-1.2806337844058082
373,-1.2426870268631773
374,-1.2009455935662832
375,-1.1341593002912527
376,-1.0590247203568433
377,-1.2138474911307777
378,-1.2980892928754186
379,-1.317062671646734
380,-1.2806337844058082
381,-1.2783569789532505
382,-1.2563478595785245
383,-1.2130885559799254
384,-1.1637577711745049
385,-1.1091144403131161
386,-1.2457227674665878
387,-1.341348596474018
388,-1.3610809103961863
389,-1.3117501255907655
390,-1.3011250334788291
391,-1.2867052656126294
392,-1.2404102214106194
393,-1.159204160269389
394,-1.127328883933579
395,-1.2700086922938716
396,-1.3648755861504493
397,-1.3906793812794382
398,-1.3345181801163442
399,-1.323134152853555
400,-1.2996071631771238
401,-1.2700086922938716
402,-1.205499204471399
403,-1.1918383717560517
404,-1.3808132243183542
405,-1.4020634085422277
406,-1.355009429189365
407,-1.341348596474018
408,-1.3421075316248707
409,-1.2904999413668925
410,-1.2601425353327877
411,-1.173623928135589
412,-1.2700086922938716
413,-1.3937151218828487
414,-1.4415280363865637
415,-1.395232992184554
416,-1.3815721594692068
417,-1.3800542891675016
418,-1.3284466989095234
419,-1.2867052656126294
420,-1.2267493886952723
421,-1.3709470673572703
422,-1.4878230805885735
423,-1.493135626644542
424,-1.44911738789509
425,-1.4597424800070267
426,-1.4096527600507538
427,-1.3800542891675016
428,-1.3155448013450288
429,-1.2639372110870508
430,-1.4339386848780376
431,-1.5280466435837625
432,-1.5394306708465517
433,-1.4635371557612897
434,-1.4764390533257843
435,-1.408893824899901
436,-1.4104116952016064
437,-1.35349155888766
438,-1.4597424800070267
439,-1.5432253466008148
440,-1.5485378926567834
441,-1.5083143296615944
442,-1.4976892375496578
443,-1.4809926642309001
444,-1.4210367873135432
445,-1.3557683643402179
446,-1.3360360504180495
447,-1.5075553945107416
448,-1.5902793259536774
449,-1.597109742311351
450,-1.5462610872042255
451,-1.525010902980352
452,-1.5174215514718257
453,-1.4635371557612897
454,-1.3990276679388172
455,-1.3959919273354067
456,-1.5568861793161621
457,-1.588761455651972
458,-1.5917971962553825
459,-1.5242519678294995
460,-1.532600254488878
461,-1.506796459359889
462,-1.4635371557612897
463,-1.4134474358050169
464,-1.4544299339510582
465,-1.5834489095960038
466,-1.5857257150485615
467,-1.5462610872042255
468,-1.5303234490363204
469,-1.4916177563428366
470,-1.4483584527442375
471,-1.4225546576152484
472,-1.4058580842964907
473,-1.5136268757175626
474,-1.5599219199195726
475,-1.4900998860411314
476,-1.477197988476637
477,-1.4612603503087318
478,-1.4369744254814483
479,-1.4172421115592801
480,-1.337553920719755
481,-1.3686702619047124
482,-1.5303234490363204
483,-1.616842056233519
484,-1.5940740017079404
485,-1.5257698381312046
486,-1.4582246097053213
487,-1.373223872809828
488,-1.2350976753546512
489,-1.0552300446025802
490,-0.9186217174491083
491,-0.9876848161766969
492,-0.963398891349413
493,-0.8594247756826041
494,-0.7319236703393639
495,-0.605940435297829
496,-0.3699116033826642
497,0.019422129004729928
498,0.26683498818268403
499,0.36170188203926157
500,0.22661142518749516
501,0.12187837436983363
502,0.10973541195619171
503,0.2175042033772638
504,0.17500383492951702
505,0.14388749374455959
506,0.17348596462781182
507,0.16437874281758036
508,0.14692323434797014
509,-0.17182952901013027
510,-0.32589336463321217
511,-0.45567127542901026
512,-0.476162524502031
513,-0.5254933093074513
514,-0.5528149747381456
515,-0.5695115480569032
516,-0.5998689540910079
517,-0.6112529813537974
518,-0.7334415406410691
519,-0.995274167685223
520,-1.1409897166489262
521,-1.1895615663034937
522,-1.1865258257000835
523,-1.1766596687389992
524,-1.1280878190844317
525,-1.1015250888045902
526,-1.0188011573616542
527,-0.9019251441303507
528,-0.999068843439486
529,-1.0165243519090965
530,-1.0119707410039809
531,-0.9117913010914349
532,-0.8442460726655517
533,-0.691700107344175
534,-0.5490202989838824
535,-0.394197528209948
536,-0.2166067029104349
537,-0.04584629396859535
538,-0.24316943319027656
539,-0.28870554224143374
540,-0.19991012959167723
541,-0.01852462853790104
542,0.052815275642245155
543,0.04446698898286633
544,0.0922799034865814
545,0.1499589749513806
546,0.13174453133091768
547,-0.23178540592748728
548,-0.45187659967474714
549,-0.5285290499108617
550,-0.476162524502031
551,-0.5482613638330298
552,-0.5619221965483769
553,-0.5725472886603137
554,-0.5535739098889982
555,-0.5884849268282186
556,-0.8229958884416783
557,-0.9960331028360758
558,-1.0552300446025802
559,-0.957327410142592
560,-0.8579069053808989
561,-0.7744240387871105
562,-0.7008073291544065
563,-0.5406720123245037
564,-0.35245609491305385
565,-0.394197528209948
566,-0.4928590978207886
567,-0.44732298876963134
568,-0.34410780825367504
569,-0.14754360418284643
570,0.01562745325046683
571,0.10138712529681287
572,0.08089587622379212
573,0.09076203318487623
574,-0.08682879211463677
575,-0.44201044271366313
576,-0.6112529813537974
577,-0.7615221412226161
578,-0.8146476017822994
579,-0.8973715332252351
580,-0.977818659215613
581,-1.0119707410039809
582,-1.0005867137411917
583,-1.0817927748824219
584,-1.2305440644495353
585,-1.2829105898583661
586,-1.2259904535444197
587,-1.0886231912400957
588,-0.9914794919309601
589,-0.8305852399502045
590,-0.6825928855339436
591,-0.4845108111614098
592,-0.5368773365702405
593,-0.5353594662685353
594,-0.4230370639423475
595,-0.24468730349198173
596,-0.17410633446268808
597,-0.04205161821433226
598,0.11808369861557054
599,0.27670114514376815
600,0.458845581348397
601,0.2812547560488838
602,0.24330799850625284
603,0.20156656520935878
604,0.22737036033834784
605,0.24482586880795812
606,0.16134300221416992
607,0.09683351439169714
608,0.03460083202178232
609,0.0027255556859722622
610,-0.3752241494386324
611,-0.5467434935313246
612,-0.5968332134875975
613,-0.6112529813537974
614,-0.6575480255558072
615,-0.6628605716117755
616,-0.7008073291544065
617,-0.745584503054711
618,-0.8062993151229206
619,-1.0362566658312646
620,-1.1288467542352842
621,-1.1645167063253574
622,-1.1698292523813258
623,-1.1903205014543465
624,-1.1242931433301684
625,-1.0180422222108017
626,-0.9026840792812034
627,-1.013488611305686
628,-1.0142475464565384
629,-0.8730856083979512
630,-0.6795571449305331
631,-0.5687526129060506
632,-0.43593896150684214
633,-0.24696410894453966
634,-0.12173980905385738
635,-0.07544476485184749
636,-0.22343711926810844
637,-0.21205309200531913
638,-0.11642726299788901
639,-0.06102499698564774
640,0.011832777496203735
641,0.08089587622379212
642,0.13705707738688602
643,0.2569688312216
644,0.05888675684906617
645,-0.05191777517541627
646,-0.1141504575453311
647,-0.07013221879587922
648,-0.09365920847231043
649,-0.15513295569137261
650,-0.16424017750160408
651,-0.25227665500050805
652,-0.372188408835222
653,-0.653753349801544
654,-0.7827723254464894
655,-0.833620980553615
656,-0.8563890350791936
657,-0.8442460726655517
658,-0.7949152878601313
659,-0.7114324212663432
660,-0.6446461279913126
661,-0.7053609400595222
662,-0.8677730623419828
663,-0.8950947277726773
664,-0.8548711647774884
665,-0.8267905641959413
666,-0.8184422775365626
667,-0.7706293630328475
668,-0.7023251994561117
669,-0.7152270970206063
670,-0.8943357926218246
671,-0.9208985229016664
672,-0.8950947277726773
673,-0.8563890350791936
674,-0.8419692672129938
675,-0.8040225096703628
676,-0.7622810763734688
677,-0.6605837661592177
678,-0.8389335266095833
679,-0.9079966253371717
680,-0.9315236150136029
681,-0.8913000520184141
682,-0.8958536629235299
683,-0.8571479702300463
684,-0.7865670012007525
685,-0.7212985782274272
686,-0.6621016364609229
687,-0.8093350557263311
688,-0.8988894035269404
689,-0.8882643114150036
690,-0.8525943593249304
691,-0.8237548235925309
692,-0.7949152878601313
693,-0.7319236703393639
694,-0.6932179776458802
695,-0.6309852952759655
696,-0.81768334238571
697,-0.8594247756826041
698,-0.8412103320621411
699,-0.8025046393686576
700,-0.7600042709209108
701,-0.745584503054711
702,-0.6977715885509961
703,-0.6249138140691445
704,-0.7615221412226161
705,-0.8503175538723726
706,-0.8434871375146991
707,-0.7896027418041631
708,-0.7911206121058683
709,-0.7433076976021532
710,-0.6712088582711543
711,-0.631744230426818
712,-0.5687526129060506
713,-0.7759419090888159
714,-0.8396924617604359
715,-0.8321031102519097
716,-0.7933974175584262
717,-0.7675936224294371
718,-0.7190217727748693
719,-0.6613427013100702
720,-0.6029046946944184
721,-0.5383952068719459
722,-0.70763774551208
723,-0.8009867690669523
724,-0.8533532944757831
725,-0.7486202436581215
726,-0.7630400115243213
727,-0.7030841346069643
728,-0.6476818685947231
729,-0.6104940462029447
730,-0.4974127087259044
731,-0.5763419644145767
732,-0.7592453357700581
733,-0.7645578818260266
734,-0.7243343188308378
735,-0.70763774551208
736,-0.7182628376240168
737,-0.6454050631421653
738,-0.5679936777551979
739,-0.5171450226480724
740,-0.6818339503830909
741,-0.75393278971409
742,-0.75393278971409
743,-0.6901822370424698
744,-0.6947358479475855
745,-0.6628605716117755
746,-0.6135297868063552
747,-0.5330826608159774
748,-0.4670553026917995
749,-0.6355389061810811
750,-0.7501381139598269
751,-0.7774597793905211
752,-0.713709226718901
753,-0.7023251994561117
754,-0.6575480255558072
755,-0.6082172407503869
756,-0.5626811316992296
757,-0.49058229236823075
758,-0.5194218281006303
759,-0.7159860321714588
760,-0.7653168169768793
761,-0.7387540866970375
762,-0.6879054315899119
763,-0.6666552473660385
764,-0.6264316843708497
765,-0.5801366401688399
766,-0.5050020602344305
767,-0.43593896150684214
768,-0.6461639982930178
769,-0.7159860321714588
770,-0.7592453357700581
771,-0.6856286261373541
772,-0.663619506762628
773,-0.6294674249742601
774,-0.5930385377333345
775,-0.5012073844801674
776,-0.4647784972392417
777,-0.6734856637237122
778,-0.7250932539816903
779,-0.7083966806629326
780,-0.6385746467844916
781,-0.6416103873879021
782,-0.6066993704486816
783,-0.5361184014193878
784,-0.4564302105798629
785,-0.38964391730483233
786,-0.615806592258913
787,-0.6901822370424698
788,-0.7197807079257219
789,-0.6385746467844916
790,-0.6446461279913126
791,-0.6180833977114709
792,-0.5611632613975244
793,-0.5087967359886936
794,-0.4086172960761478
795,-0.6249138140691445
796,-0.6787982097796805
797,-0.7144681618697537
798,-0.671967793422007
799,-0.6514765443489862
800,-0.6249138140691445
801,-0.5831723807722504
802,-0.5042431250835778
803,-0.43138535060172634
804,-0.6150476571080604
805,-0.6977715885509961
806,-0.7212985782274272
807,-0.6803160800813857
808,-0.6400925170861969
809,-0.6385746467844916
810,-0.5900027971299239
811,-0.5414309474753563
812,-0.47009104329521006
813,-0.6970126534001434
814,-0.7387540866970375
815,-0.6856286261373541
816,-0.6499586740472809
817,-0.6674141825168911
818,-0.6082172407503869
819,-0.5657168723026401
820,-0.48906442206652556
821,-0.691700107344175
822,-0.7410308921495954
823,-0.7630400115243213
824,-0.7273700594342482
825,-0.7129502915680485
826,-0.7023251994561117
827,-0.6362978413319338
828,-0.5437077529279141
829,-0.5930385377333345
830,-0.7372362163953323
831,-0.8085761205754786
832,-0.7827723254464894
833,-0.7524149194123847
834,-0.7584864006192056
835,-0.7000483940035539
836,-0.6514765443489862
837,-0.587725991677366
838,-0.6302263601251129
839,-0.7873259363516051
840,-0.8085761205754786
841,-0.7744240387871105
842,-0.7440666327530058
843,-0.745584503054711
844,-0.7159860321714588
845,-0.6461639982930178
846,-0.5771008995654293
847,-0.6104940462029447
848,-0.7918795472567209
849,-0.8123707963297416
850,-0.757727465468353
851,-0.7607632060717634
852,-0.7524149194123847
853,-0.6810750152322383
854,-0.6560301552541018
855,-0.5550917801907035
856,-0.7152270970206063
857,-0.795674223010984
858,-0.779736584843079
859,-0.7774597793905211
860,-0.7774597793905211
861,-0.7167449673223115
862,-0.6484408037455757
863,-0.587725991677366
864,-0.5300469202125669
865,-0.67576246917627
866,-0.8002278339160996
867,-0.8222369532908257
868,-0.7759419090888159
869,-0.7645578818260266
870,-0.7197807079257219
871,-0.7091556158137853
872,-0.8062993151229206
873,-0.7812544551447842
874,-0.6992894588527012
875,-0.6825928855339436
876,-0.6355389061810811
877,-0.5998689540910079
878,-0.49665377357505175
879,-0.4002690094167689
880,-0.30995572646530717
881,-0.2560713307547711
882,-0.16424017750160408
883,-0.26517855256500256
884,-0.5679936777551979
885,-0.6066993704486816
886,-0.5596453910958191
887,-0.5437077529279141
888,-0.5490202989838824
889,-0.5057609953852831
890,-0.44049257241195783
891,-0.3744652142877799
892,-0.5748240941128715
893,-0.6590658958575124
894,-0.6446461279913126
895,-0.5778598347162821
896,-0.6044225649961238
897,-0.5512971044364404
898,-0.49058229236823075
899,-0.3926796579082427
900,-0.5391541420227984
901,-0.6780392746288278
902,-0.741789827300448
903,-0.671967793422007
904,-0.6856286261373541
905,-0.6681731176677438
906,-0.6180833977114709
907,-0.5771008995654293
908,-0.492100162669936
909,-0.6970126534001434
910,-0.773665103636258
911,-0.8154065369331521
912,-0.7698704278819949
913,-0.7501381139598269
914,-0.7296468648868061
915,-0.6894233018916172
916,-0.5793777050179874
917,-0.5558507153415561
918,-0.7858080660499
919,-0.8199601478382679
920,-0.8062993151229206
921,-0.7767008442396686
922,-0.7364772812444796
923,-0.7008073291544065
924,-0.6522354794998387
925,-0.5755830292637241
926,-0.7387540866970375
927,-0.8184422775365626
928,-0.8237548235925309
929,-0.7630400115243213
930,-0.757727465468353
931,-0.7326826054902165
932,-0.6552712201032492
933,-0.5953153431858923
934,-0.757727465468353
935,-0.8396924617604359
936,-0.855630099928341
937,-0.7880848715024578
938,-0.8009867690669523
939,-0.7584864006192056
940,-0.6795571449305331
941,-0.6302263601251129
942,-0.6681731176677438
943,-0.8138886666314469
944,-0.8829517653590353
945,-0.8510764890232252
946,-0.8245137587433835
947,-0.7880848715024578
948,-0.7622810763734688
949,-0.6734856637237122
950,-0.6127708516555025
951,-0.7410308921495954
952,-0.8374156563078781
953,-0.8708088029453934
954,-0.8047814448212155
955,-0.7933974175584262
956,-0.7683525575802896
957,-0.6894233018916172
958,-0.653753349801544
959,-0.6029046946944184
960,-0.7903616769550157
961,-0.8412103320621411
962,-0.8192012126874152
963,-0.7713882981837001
964,-0.7660757521277318
965,-0.7114324212663432
966,-0.6787982097796805
967,-0.5884849268282186
968,-0.7448255679038585
969,-0.7949152878601313
970,-0.8070582502737733
971,-0.735718346093627
972,-0.7288879297359534
973,-0.7121913564171958
974,-0.671967793422007
975,-0.5778598347162821
976,-0.5376362717210932
977,-0.7440666327530058
978,-0.8078171854246259
979,-0.7782187145413738
980,-0.7501381139598269
981,-0.7463434382055637
982,-0.6886643667407646
983,-0.6674141825168911
984,-0.5900027971299239
985,-0.5710294183586084
986,-0.7106734861154905
987,-0.7971920933126893
988,-0.7698704278819949
989,-0.7281289945851008
990,-0.7212985782274272
991,-0.6689320528185964
992,-0.6082172407503869
993,-0.5315647905142722
994,-0.523975439005746
995,-0.7023251994561117
996,-0.7433076976021532
997,-0.7114324212663432
998,-0.6894233018916172
999,-0.6507176091981336
1000,-0.6150476571080604
1001,-0.5657168723026401
1002,-0.48526974631226244
1003,-0.5953153431858923
1004,-0.7008073291544065
1005,-0.7106734861154905
1006,-0.6476818685947231
1007,-0.6575480255558072
1008,-0.583931315923103
1009,-0.5641990020009349
1010,-0.48602868146311506
1011,-0.43593896150684214
1012,-0.631744230426818
1013,-0.6696909879694491
1014,-0.67576246917627
1015,-0.6385746467844916
1016,-0.6241548789182918
1017,-0.5975921486384501
1018,-0.5383952068719459
1019,-0.46781423784265214
1020,-0.39040285245568496
1021,-0.5854491862248082
1022,-0.6970126534001434
1023,-0.6787982097796805
1024,-0.6249138140691445
1025,-0.6135297868063552
1026,-0.5831723807722504
1027,-0.5467434935313246
1028,-0.4374568318085474
1029,-0.38736711185227435
1030,-0.5634400668500822
1031,-0.6674141825168911
1032,-0.6484408037455757
1033,-0.5945564080350397
1034,-0.5801366401688399
1035,-0.5535739098889982
1036,-0.5004484493293148
1037,-0.4275906748474632
1038,-0.3858492415505692
1039,-0.5915206674316292
1040,-0.6507176091981336
1041,-0.6188423328623236
1042,-0.5687526129060506
1043,-0.5641990020009349
1044,-0.5224575687040407
1045,-0.4283496099983159
1046,-0.3858492415505692
1047,-0.5475024286821772
1048,-0.6332621007285233
1049,-0.6347799710302285
1050,-0.571788353509461
1051,-0.5679936777551979
1052,-0.5346005311176827
1053,-0.47768039480373625
1054,-0.3972332688133585
1055,-0.42151919364064233
1056,-0.6097351110520921
1057,-0.6173244625606183
1058,-0.621878073465734
1059,-0.5975921486384501
1060,-0.5778598347162821
1061,-0.5679936777551979
1062,-0.4807161354071467
1063,-0.4033047500201794
1064,-0.5209396984023354
1065,-0.6507176091981336
1066,-0.6545122849523967
1067,-0.6104940462029447
1068,-0.5771008995654293
1069,-0.5679936777551979
1070,-0.5012073844801674
1071,-0.46781423784265214
1072,-0.4033047500201794
1073,-0.6104940462029447
1074,-0.6408514522370494
1075,-0.6082172407503869
1076,-0.587725991677366
1077,-0.5543328450398508
1078,-0.5482613638330298
1079,-0.5004484493293148
1080,-0.4192423881880844
1081,-0.5884849268282186
1082,-0.6613427013100702
1083,-0.6454050631421653
1084,-0.6294674249742601
1085,-0.5854491862248082
1086,-0.5566096504924086
1087,-0.5080378008378409
1088,-0.43669789665769476
1089,-0.5596453910958191
1090,-0.6696909879694491
1091,-0.6909411721933224
1092,-0.6408514522370494
1093,-0.6294674249742601
1094,-0.5983510837893028
1095,-0.5543328450398508
1096,-0.49361803297164125
1097,-0.45870701603242064
1098,-0.6249138140691445
1099,-0.6765214043271226
1100,-0.713709226718901
1101,-0.665896312215186
1102,-0.6507176091981336
1103,-0.6264316843708497
1104,-0.5528149747381456
1105,-0.5042431250835778
1106,-0.48754655176482026
1107,-0.6605837661592177
1108,-0.7326826054902165
1109,-0.7182628376240168
1110,-0.6901822370424698
1111,-0.6628605716117755
1112,-0.6226370086165867
1113,-0.5512971044364404
1114,-0.5186628929497776
1115,-0.621878073465734
1116,-0.7114324212663432
1117,-0.7121913564171958
1118,-0.6696909879694491
1119,-0.6431282576896072
1120,-0.6302263601251129
1121,-0.5884849268282186
1122,-0.5300469202125669
1123,-0.48830548691567294
1124,-0.6856286261373541
1125,-0.7508970491106794
1126,-0.7167449673223115
1127,-0.7334415406410691
1128,-0.6947358479475855
1129,-0.6233959437674392
1130,-0.5869670565265135
1131,-0.5095556711395461
1132,-0.5247343741565986
1133,-0.7106734861154905
1134,-0.7562095951666478
1135,-0.7121913564171958
1136,-0.7129502915680485
1137,-0.6825928855339436
1138,-0.637815711633639
1139,-0.5801366401688399
1140,-0.5186628929497776
1141,-0.5050020602344305
1142,-0.6818339503830909
1143,-0.7812544551447842
1144,-0.7433076976021532
1145,-0.7182628376240168
1146,-0.6787982097796805
1147,-0.6370567764827864
1148,-0.587725991677366
1149,-0.5361184014193878
1150,-0.6188423328623236
1151,-0.7395130218478901
1152,-0.7706293630328475
1153,-0.6962537182492908
1154,-0.6992894588527012
1155,-0.6560301552541018
1156,-0.6006278892418606
1157,-0.5543328450398508
1158,-0.53384159596683
1159,-0.7129502915680485
1160,-0.7767008442396686
1161,-0.7653168169768793
1162,-0.7175039024731641
1163,-0.7053609400595222
1164,-0.6560301552541018
1165,-0.605940435297829
1166,-0.5368773365702405
1167,-0.49361803297164125
1168,-0.7569685303175003
1169,-0.7918795472567209
1170,-0.7562095951666478
1171,-0.7326826054902165
1172,-0.735718346093627
1173,-0.6765214043271226
1174,-0.6135297868063552
1175,-0.5421898826262089
1176,-0.5505381692855876
1177,-0.7235753836799851
1178,-0.7880848715024578
1179,-0.7440666327530058
1180,-0.7364772812444796
1181,-0.6970126534001434
1182,-0.6742445988745648
1183,-0.5975921486384501
1184,-0.48602868146311506
1185,-0.571788353509461
1186,-0.763798946675174
1187,-0.7531738545632373
1188,-0.7212985782274272
1189,-0.7159860321714588
1190,-0.6871464964390593
1191,-0.6605837661592177
1192,-0.5558507153415561
1193,-0.48678761661396763
1194,-0.7190217727748693
1195,-0.7524149194123847
1196,-0.7410308921495954
1197,-0.6795571449305331
1198,-0.7053609400595222
1199,-0.6180833977114709
1200,-0.5915206674316292
1201,-0.5186628929497776
1202,-0.4382157669594
1203,-0.7220575133782798
1204,-0.7501381139598269
1205,-0.7478613085072688
1206,-0.6901822370424698
1207,-0.7008073291544065
1208,-0.6302263601251129
1209,-0.5900027971299239
1210,-0.5080378008378409
1211,-0.4397336372611052
1212,-0.6355389061810811
1213,-0.7326826054902165
1214,-0.7569685303175003
1215,-0.7061198752103748
1216,-0.6924590424950277
1217,-0.6431282576896072
1218,-0.5862081213756608
1219,-0.5072788656869883
1220,-0.47692145965288363
1221,-0.7106734861154905
1222,-0.7751829739379632
1223,-0.7083966806629326
1224,-0.6886643667407646
1225,-0.6856286261373541
1226,-0.6279495546725549
1227,-0.5808955753196925
1228,-0.4837518760105572
1229,-0.6423693225387547
1230,-0.7683525575802896
1231,-0.7645578818260266
1232,-0.7175039024731641
1233,-0.7182628376240168
1234,-0.6704499231203017
1235,-0.6393335819353442
1236,-0.5421898826262089
1237,-0.4807161354071467
1238,-0.6696909879694491
1239,-0.7949152878601313
1240,-0.8154065369331521
1241,-0.7402719569987427
1242,-0.7197807079257219
1243,-0.7159860321714588
1244,-0.6643784419134807
1245,-0.593797472884187
1246,-0.5346005311176827
1247,-0.6856286261373541
1248,-0.7850491308990473
1249,-0.8131297314805942
1250,-0.7767008442396686
1251,-0.7326826054902165
1252,-0.735718346093627
1253,-0.6932179776458802
1254,-0.6089761759012394
1255,-0.5437077529279141
1256,-0.7326826054902165
1257,-0.7979510284635418
1258,-0.8085761205754786
1259,-0.7501381139598269
1260,-0.7721472333345527
1261,-0.7243343188308378
1262,-0.6643784419134807
1263,-0.6325031655776707
1264,-0.5664758074534928
1265,-0.7471023733564163
1266,-0.8085761205754786
1267,-0.8245137587433835
1268,-0.7964331581618366
1269,-0.7842901957481947
1270,-0.7592453357700581
1271,-0.6939769127967329
1272,-0.64388719284046
1273,-0.5664758074534928
1274,-0.7508970491106794
1275,-0.8328620454027624
1276,-0.8579069053808989
1277,-0.8093350557263311
1278,-0.8040225096703628
1279,-0.8002278339160996
1280,-0.7182628376240168
1281,-0.6727267285728595
1282,-0.5816545104705452
1283,-0.6408514522370494
1284,-0.8131297314805942
1285,-0.8541122296266357
1286,-0.8290673696484994
1287,-0.7820133902956369
1288,-0.8093350557263311
1289,-0.751655984261532
1290,-0.6795571449305331
1291,-0.6203602031640287
1292,-0.6104940462029447
1293,-0.8093350557263311
1294,-0.8351388508553202
1295,-0.8062993151229206
1296,-0.7880848715024578
1297,-0.7607632060717634
1298,-0.7083966806629326
1299,-0.6507176091981336
1300,-0.5801366401688399
1301,-0.6583069607066598
1302,-0.8025046393686576
1303,-0.8267905641959413
1304,-0.8146476017822994
1305,-0.779736584843079
1306,-0.7767008442396686
1307,-0.7190217727748693
1308,-0.6545122849523967
1309,-0.5649579371517875
1310,-0.5535739098889982
1311,-0.7592453357700581
1312,-0.8184422775365626
1313,-0.7820133902956369
1314,-0.7478613085072688
1315,-0.7349594109427743
1316,-0.709914550964638
1317,-0.6454050631421653
1318,-0.5816545104705452
1319,-0.49361803297164125
1320,-0.6985305237018486
1321,-0.7804955199939316
1322,-0.7630400115243213
1323,-0.7304058000376586
1324,-0.70763774551208
1325,-0.6825928855339436
1326,-0.6491997388964283
1327,-0.571788353509461
1328,-0.48526974631226244
1329,-0.6006278892418606
1330,-0.7524149194123847
1331,-0.7675936224294371
1332,-0.70763774551208
1333,-0.7068788103612273
1334,-0.671967793422007
1335,-0.615806592258913
1336,-0.5444666880787667
1337,-0.46326062693753645
1338,-0.621878073465734
1339,-0.7531738545632373
1340,-0.7691114927311423
1341,-0.7030841346069643
1342,-0.7197807079257219
1343,-0.6879054315899119
1344,-0.6992894588527012
1345,-0.7729061684854054
1346,-0.7053609400595222
1347,-0.6165655274097656
1348,-0.6431282576896072
1349,-0.6089761759012394
1350,-0.5437077529279141
1351,-0.42151919364064233
1352,-0.3759830845894851
1353,-0.27580364467693924
1354,-0.18321355627291958
1355,-0.12098087390300476
1356,-0.048882034572005816
1357,-0.44732298876963134
1358,-0.6036636298452711
1359,-0.6006278892418606
1360,-0.539913077173651
1361,-0.5543328450398508
1362,-0.552056039587293
1363,-0.47995720025629407
1364,-0.41772451788637927
1365,-0.312232531917865
1366,-0.5786187698671347
1367,-0.7023251994561117
1368,-0.6939769127967329
1369,-0.631744230426818
1370,-0.6491997388964283
1371,-0.6165655274097656
1372,-0.5687526129060506
1373,-0.5232165038548934
1374,-0.46629636754094683
1375,-0.7402719569987427
1376,-0.7782187145413738
1377,-0.8100939908771837
1378,-0.7600042709209108
1379,-0.7615221412226161
1380,-0.7175039024731641
1381,-0.6560301552541018
1382,-0.5983510837893028
1383,-0.5960742783367449
1384,-0.8480407484198148
1385,-0.9049608847337611
1386,-0.8950947277726773
1387,-0.8761213490013617
1388,-0.8525943593249304
1389,-0.8017457042178049
1390,-0.7524149194123847
1391,-0.6803160800813857
1392,-0.671967793422007
1393,-0.887505376264151
1394,-0.9489791234832134
1395,-0.9307646798627505
1396,-0.9186217174491083
1397,-0.8829517653590353
1398,-0.8708088029453934
1399,-0.7933974175584262
1400,-0.7326826054902165
1401,-0.7410308921495954
1402,-0.95960421559515
1403,-0.9709882428579392
1404,-0.9429076422763923
1405,-0.9239342635050768
1406,-0.903443014432056
1407,-0.8609426459843094
1408,-0.8108529260280364
1409,-0.7228164485291325
1410,-0.9057198198846137
1411,-1.0021045840428968
1412,-1.0104528707022755
1413,-0.9580863452934446
1414,-0.9626399561985606
1415,-0.9201395877508135
1416,-0.8670141271911302
1417,-0.8055403799720681
1418,-0.7228164485291325
1419,-0.9262110689576346
1420,-1.0438460173397908
1421,-1.0423281470380856
1422,-0.9823722701207284
1423,-0.9854080107241389
1424,-0.9770597240647603
1425,-0.8935768574709719
1426,-0.8670141271911302
1427,-0.7600042709209108
1428,-0.9284878744101925
1429,-1.0324619900770016
1430,-1.0628193961111063
1431,-0.999068843439486
1432,-1.0180422222108017
1433,-0.9838901404224336
1434,-0.9231753283542241
1435,-0.8503175538723726
1436,-0.7812544551447842
1437,-0.9406308368238344
1438,-1.0392924064346751
1439,-1.0430870821889382
1440,-0.9800954646681707
1441,-0.9967920379869283
1442,-0.9740239834613498
1443,-0.9110323659405822
1444,-0.8434871375146991
1445,-0.8525943593249304
1446,-1.0370156009821172
1447,-1.0779980991281586
1448,-1.0188011573616542
1449,-0.9907205567801074
1450,-0.9679525022545288
1451,-0.9322825501644557
1452,-0.8730856083979512
1453,-0.8738445435488038
1454,-1.0332209252278541
1455,-1.0415692118872328
1456,-0.9884437513275495
1457,-0.9717471780087917
1458,-0.9345593556170135
1459,-0.8928179223201194
1460,-0.8298263047993519
1461,-0.7212985782274272
1462,-0.6309852952759655
1463,-0.8480407484198148
1464,-0.967193567103676
1465,-0.9884437513275495
1466,-0.957327410142592
1467,-0.9125502362422876
1468,-0.9201395877508135
1469,-0.8548711647774884
1470,-0.8032635745195102
1471,-0.7205396430765746
1472,-0.9186217174491083
1473,-0.9967920379869283
1474,-0.9664346319528235
1475,-0.9178627822982558
1476,-0.9315236150136029
1477,-0.8913000520184141
1478,-0.8070582502737733
1479,-0.7744240387871105
1480,-0.8852285708115932
1481,-0.9656756968019707
1482,-0.9892026864784021
1483,-0.9284878744101925
1484,-0.941389771974687
1485,-0.8897821817167089
1486,-0.8062993151229206
1487,-0.7774597793905211
1488,-0.7228164485291325
1489,-0.9201395877508135
1490,-0.995274167685223
1491,-0.9983099082886335
1492,-0.9383540313712765
1493,-0.9482201883323607
1494,-0.8996483386777929
1495,-0.8525943593249304
1496,-0.773665103636258
1497,-0.7410308921495954
1498,-0.9451844477289502
1499,-0.995274167685223
1500,-1.0005867137411917
1501,-0.9512559289357712
1502,-0.9406308368238344
1503,-0.8996483386777929
1504,-0.8541122296266357
1505,-0.7653168169768793
1506,-0.70763774551208
1507,-0.909514495638877
1508,-0.9854080107241389
1509,-0.9656756968019707
1510,-0.9087555604880244
1511,-0.9171038471474033
1512,-0.8692909326436882
1513,-0.8229958884416783
1514,-0.7281289945851008
1515,-0.827549499346794
1516,-0.9474612531815082
1517,-0.973265048310497
1518,-0.8950947277726773
1519,-0.8746034786996565
1520,-0.8487996835706674
1521,-0.8169244072348574
1522,-0.7175039024731641
1523,-0.6226370086165867
1524,-0.7713882981837001
1525,-0.8859875059624458
1526,-0.9133091713931402
1527,-0.8617015811351619
1528,-0.8343799157044676
1529,-0.8070582502737733
1530,-0.7501381139598269
1531,-0.6750035340254174
1532,-0.6051815001469764
1533,-0.7706293630328475
1534,-0.8806749599064774
1535,-0.8768802841522143
1536,-0.8207190829891204
1537,-0.8100939908771837
1538,-0.773665103636258
1539,-0.7175039024731641
1540,-0.6522354794998387
1541,-0.5687526129060506
1542,-0.7046020049086695
1543,-0.8131297314805942
1544,-0.8472818132689621
1545,-0.7767008442396686
1546,-0.7463434382055637
1547,-0.7486202436581215
1548,-0.6833518206847963
1549,-0.6287084898234075
1550,-0.5725472886603137
1551,-0.8040225096703628
1552,-0.8085761205754786
1553,-0.7592453357700581
1554,-0.7600042709209108
1555,-0.7129502915680485
1556,-0.6567890904049546
1557,-0.6074583055995342
1558,-0.5490202989838824
1559,-0.6127708516555025
1560,-0.7691114927311423
1561,-0.8229958884416783
1562,-0.7941563527092788
1563,-0.7554506600157951
1564,-0.7622810763734688
1565,-0.6818339503830909
1566,-0.6135297868063552
1567,-0.5421898826262089
1568,-0.6803160800813857
1569,-0.8047814448212155
1570,-0.8131297314805942
1571,-0.7880848715024578
1572,-0.7675936224294371
1573,-0.7379951515461849
1574,-0.7159860321714588
1575,-0.6226370086165867
1576,-0.5467434935313246
1577,-0.7144681618697537
1578,-0.8108529260280364
1579,-0.8154065369331521
1580,-0.7471023733564163
1581,-0.7311647351885112
1582,-0.6992894588527012
1583,-0.6871464964390593
1584,-0.6074583055995342
1585,-0.5968332134875975
1586,-0.7622810763734688
1587,-0.8017457042178049
1588,-0.741789827300448
1589,-0.7440666327530058
1590,-0.7448255679038585
1591,-0.6727267285728595
1592,-0.615806592258913
1593,-0.5497792341347351
1594,-0.7433076976021532
1595,-0.8108529260280364
1596,-0.7941563527092788
1597,-0.7713882981837001
1598,-0.7774597793905211
1599,-0.7205396430765746
1600,-0.6590658958575124
1601,-0.6196012680131762
1602,-0.6112529813537974
1603,-0.7827723254464894
1604,-0.8283084344976467
1605,-0.8085761205754786
1606,-0.7850491308990473
1607,-0.7713882981837001
1608,-0.7342004757919217
1609,-0.665896312215186
1610,-0.625672749219997
1611,-0.5991100189401554
1612,-0.7789776496922264
1613,-0.8305852399502045
1614,-0.8328620454027624
1615,-0.7592453357700581
1616,-0.7493791788089742
1617,-0.7304058000376586
1618,-0.6841107558356488
1619,-0.6135297868063552
1620,-0.5497792341347351
1621,-0.7364772812444796
1622,-0.8002278339160996
1623,-0.8229958884416783
1624,-0.7926384824075735
1625,-0.7888438066533104
1626,-0.7463434382055637
1627,-0.6810750152322383
1628,-0.6446461279913126
1629,-0.7000483940035539
1630,-0.8047814448212155
1631,-0.8184422775365626
1632,-0.7918795472567209
1633,-0.7630400115243213
1634,-0.7508970491106794
1635,-0.6879054315899119
1636,-0.6446461279913126
1637,-0.5414309474753563
1638,-0.7023251994561117
1639,-0.8032635745195102
1640,-0.8374156563078781
1641,-0.795674223010984
1642,-0.7873259363516051
1643,-0.7395130218478901
1644,-0.7440666327530058
1645,-0.6469229334438705
1646,-0.5854491862248082
1647,-0.6734856637237122
1648,-0.8070582502737733
1649,-0.8207190829891204
1650,-0.7926384824075735
1651,-0.7387540866970375
1652,-0.7281289945851008
1653,-0.6871464964390593
1654,-0.6051815001469764
1655,-0.5315647905142722
1656,-0.6545122849523967
1657,-0.7698704278819949
1658,-0.8032635745195102
1659,-0.7235753836799851
1660,-0.7091556158137853
1661,-0.6803160800813857
1662,-0.6294674249742601
1663,-0.5679936777551979
1664,-0.5186628929497776
1665,-0.7319236703393639
1666,-0.7600042709209108
1667,-0.7387540866970375
1668,-0.7114324212663432
1669,-0.6780392746288278
1670,-0.6446461279913126
1671,-0.5846902510739556
1672,-0.4951359032733465
1673,-0.5649579371517875
1674,-0.7197807079257219
1675,-0.779736584843079
1676,-0.7273700594342482
1677,-0.6894233018916172
1678,-0.6856286261373541
1679,-0.6294674249742601
1680,-0.5641990020009349
1681,-0.5179039577989251
1682,-0.5444666880787667
1683,-0.6674141825168911
1684,-0.7015662643052591
1685,-0.6279495546725549
1686,-0.5209396984023354
1687,-0.4268317396966106
1688,-0.25227665500050805
1689,-0.023078239443016776
1690,0.18942360279571685
1691,0.2706296639369471
1692,0.07027078411185546
1693,0.08013694107293948
1694,0.21826313852811635
1695,0.21295059247214806
1696,0.26152244212671566
1697,0.35714827113414577
1698,0.4671938680077758
1699,0.5840698812390793
1700,0.5119710419080804
1701,0.31464790268639914
1702,0.2554509609198947
1703,0.3093353566304307
1704,0.18638786219230638
1705,0.05964569199991881
1706,0.004243425987677541
1707,-0.03825694246006916
1708,-0.09897175452827871
1709,-0.3661169276284011
1710,-0.6074583055995342
1711,-0.7767008442396686
1712,-0.8890232465658563
1713,-0.9649167616511183
1714,-1.0544711094517276
1715,-1.1364361057438106
1716,-1.19715091781202
1717,-1.2343387402037986
1718,-1.392956186731996
1719,-1.6411279810608028
1720,-1.7473789021801698
1721,-1.8111294548517898
1722,-1.8293438984722523
1723,-1.8597013045063575
1724,-1.8270670930196948
1725,-1.774700567610864
1726,-1.6707264519440552
1727,-1.613047380479256
1728,-1.68666409011196
1729,-1.7033606634307177
1730,-1.6471994622676236
1731,-1.505278589058184
1732,-1.412688500654164
1733,-1.3034018389313868
1734,-1.1561684196659787
1735,-1.0400513415855277
1736,-0.8935768574709719
1737,-0.9482201883323607
1738,-1.0051403246463073
1739,-0.9330414853153082
1740,-0.8017457042178049
1741,-0.7546917248649425
1742,-0.6977715885509961
1743,-0.5702704832077559
1744,-0.4086172960761478
1745,-0.20977628655276126
1746,-0.26366068226329736
1747,-0.34638461370623297
1748,-0.31754507797383336
1749,-0.2970538289008126
1750,-0.23633901683260303
1751,-0.22343711926810844
1752,-0.13464170661835184
1753,-0.0428105533651849
1754,-0.16575804780330924
1755,-0.31375040221957023
1756,-0.36080438157243266
1757,-0.3767420197403377
1758,-0.404063685171032
1759,-0.4594659511832733
1760,-0.49665377357505175
1761,-0.5292879850617144
1762,-0.5376362717210932
1763,-0.5634400668500822
1764,-0.5831723807722504
1765,-0.6423693225387547
1766,-0.9702293077070865
1767,-1.2146064262816305
1768,-1.3087143849873553
1769,-1.3140269310433237
1770,-1.3686702619047124
1771,-1.4255903982186588
1772,-1.4324208145763324
1773,-1.3838489649217647
1774,-1.345143272228281
1775,-1.4483584527442375
1776,-1.5310823841871732
1777,-1.5212162272260887
1778,-1.4369744254814483
1779,-1.4180010467101327
1780,-1.3876436406760277
1781,-1.3200984122501447
1782,-1.1728649929847361
1783,-1.0681319421670747
1784,-1.1106323106148215
1785,-1.1948741123594622
1786,-1.232820869902093
1787,-1.1728649929847361
1788,-1.085587450636685
1789,-1.0605425906585484
1790,-0.9770597240647603
1791,-0.8290673696484994
1792,-0.7144681618697537
1793,-0.6560301552541018
1794,-0.8783981544539196
1795,-0.9725061131596444
1796,-0.9178627822982558
1797,-0.8009867690669523
1798,-0.7569685303175003
1799,-0.6089761759012394
1800,-0.4533944699764524
1801,-0.25227665500050805
1802,-0.13615957692005712
1803,-0.3357595215942962
1804,-0.4192423881880844
1805,-0.372188408835222
1806,-0.2970538289008126
1807,-0.25455346045306587
1808,-0.2150888326087296
1809,-0.17486526961354074
1810,-0.1202219387521521
1811,-0.11263258724362592
1812,-0.45187659967474714
1813,-0.6651373770643333
1814,-0.7364772812444796
1815,-0.7827723254464894
1816,-0.8290673696484994
1817,-0.8799160247556248
1818,-0.925452133806782
1819,-0.9186217174491083
1820,-1.0590247203568433
1821,-1.3049197092330922
1822,-1.4217957224643958
1823,-1.471126507269816
1824,-1.506796459359889
1825,-1.5341181247905835
1826,-1.5159036811701208
1827,-1.5341181247905835
1828,-1.445322712140827
1829,-1.5280466435837625
1830,-1.6912177010170761
1831,-1.7451020967276119
1832,-1.7109500149392438
1833,-1.6980481173747493
1834,-1.6327796944014241
1835,-1.562957660522983
1836,-1.4802337290800476
1837,-1.341348596474018
1838,-1.298848228026271
1839,-1.4263493333695114
1840,-1.4384922957831532
1841,-1.4005455382405223
1842,-1.3557683643402179
1843,-1.2457227674665878
1844,-1.0635783312619589
1845,-0.963398891349413
1846,-0.8199601478382679
1847,-0.6431282576896072
1848,-0.8480407484198148
1849,-0.7941563527092788
1850,-0.7486202436581215
1851,-0.6089761759012394
1852,-0.5634400668500822
1853,-0.5034841899327253
1854,-0.4275906748474632
1855,-0.3668758627792536
1856,-0.44352831301536827
1857,-0.6454050631421653
1858,-0.7129502915680485
1859,-0.7546917248649425
1860,-0.8510764890232252
1861,-0.9224163932033715
1862,-0.9588452804442973
1863,-1.183490085096673
1864,-1.2768391086515454
1865,-1.3094733201382078
1866,-1.3337592449654916
1867,-1.3914383164302913
1868,-1.3641166509995966
1869,-1.2426870268631773
1870,-1.0817927748824219
1871,-1.017283287059949
1872,-0.9444255125780976
1873,-0.8579069053808989
1874,-0.8025046393686576
1875,-1.109873375463969
1876,-1.2449638323157353
1877,-1.2684908219921662
1878,-1.2017045287171357
1879,-1.1941151772086096
1880,-1.1766596687389992
1881,-1.1576862899676839
1882,-1.0597836555076956
1883,-0.9664346319528235
1884,-1.0901410615418006
1885,-1.2146064262816305
1886,-1.273044432897282
1887,-1.2358566105055038
1888,-1.215365361432483
1889,-1.2282672589969774
1890,-1.185766890549231
1891,-1.1091144403131161
1892,-1.0962125427486216
1893,-1.296571422573713
1894,-1.3163037364958816
1895,-1.2821516547075136
1896,-1.265455081388756
1897,-1.254829989276819
1898,-1.2305440644495353
1899,-1.1986687881137252
1900,-1.1121501809165266
1901,-1.1349182354421052
1902,-1.3117501255907655
1903,-1.357286234641923
1904,-1.341348596474018
1905,-1.3261698934569655
1906,-1.3155448013450288
1907,-1.2738033680481347
1908,-1.2191600371867461
1909,-1.1698292523813258
1910,-1.161480965721947
1911,-1.373223872809828
1912,-1.363357715848744
1913,-1.3390717910214602
1914,-1.3261698934569655
1915,-1.2904999413668925
1916,-1.2624193407853455
1917,-1.22902619414783
1918,-1.16527564147621
1919,-1.1478201330065998
1920,-1.3466611425299864
1921,-1.3739828079606806
1922,-1.3421075316248707
1923,-1.3178216067975868
1924,-1.2950535522720081
1925,-1.2662140165396085
1926,-1.195633047510315
1927,-1.139471846347221
1928,-1.2533121189751137
1929,-1.3254109583061129
1930,-1.35349155888766
1931,-1.3079554498365025
1932,-1.2882231359143346
1933,-1.2775980438023977
1934,-1.199427723264578
1935,-1.1523737439117159
1936,-1.0681319421670747
1937,-1.183490085096673
1938,-1.3132679958924711
1939,-1.3299645692112285
1940,-1.3117501255907655
1941,-1.2927767468194502
1942,-1.2684908219921662
1943,-1.2525531838242614
1944,-1.1789364741915573
1945,-1.2085349450748095
1946,-1.3125090607416188
1947,-1.3246520231552603
1948,-1.2578657298802298
1949,-1.2639372110870508
1950,-1.2138474911307777
1951,-1.1850079553983783
1952,-1.0939357372960636
1953,-1.0180422222108017
1954,-0.9467023180306553
1955,-0.9307646798627505
1956,-1.1759007335881466
1957,-1.2533121189751137
1958,-1.249517443220851
1959,-1.1599630954202418
1960,-1.173623928135589
1961,-1.1531326790625682
1962,-1.1007661536537374
1963,-1.025631573719328
1964,-1.0734444882230434
1965,-1.2525531838242614
1966,-1.2775980438023977
1967,-1.2199189723375987
1968,-1.1986687881137252
1969,-1.195633047510315
1970,-1.1683113820796205
1971,-1.1197395324250528
1972,-1.0294262494735908
1973,-1.1038018942571481
1974,-1.261660405634493
1975,-1.3041607740822394
1976,-1.271526562595577
1977,-1.2517942486734086
1978,-1.2373744808072091
1979,-1.195633047510315
1980,-1.1576862899676839
1981,-1.071167682770485
1982,-1.1569273548168313
1983,-1.298848228026271
1984,-1.348937947982544
1985,-1.3011250334788291
1986,-1.287464200763482
1987,-1.2487585080699983
1988,-1.2108117505273674
1989,-1.1766596687389992
1990,-1.1364361057438106
1991,-1.2464817026174404
1992,-1.3436254019265759
1993,-1.357286234641923
1994,-1.28974100621604
1995,-1.291258876517745
1996,-1.2684908219921662
1997,-1.2168832317341882
1998,-1.173623928135589
1999,-1.2168832317341882
2000,-1.3390717910214602
2001,-1.3777774837149437
2002,-1.3322413746637862
2003,-1.3254109583061129
2004,-1.2859463304617769
2005,-1.2419280917123248
2006,-1.1963919826611675
2007,-1.1288467542352842
2008,-1.2760801735006926
2009,-1.355009429189365
2010,-1.3800542891675016
2011,-1.3322413746637862
2012,-1.3337592449654916
2013,-1.319339477099292
2014,-1.2479995729191453
2015,-1.2130885559799254
2016,-1.1569273548168313
2017,-1.257106794729377
2018,-1.3770185485640911
2019,-1.3610809103961863
2020,-1.3466611425299864
2021,-1.3079554498365025
2022,-1.3018839686296817
2023,-1.2540710541259665
2024,-1.2100528153765147
2025,-1.1683113820796205
2026,-1.2100528153765147
2027,-1.3436254019265759
2028,-1.3557683643402179
2029,-1.317062671646734
2030,-1.2996071631771238
2031,-1.2942946171211556
2032,-1.2426870268631773
2033,-1.1827311499458204
2034,-1.1311235596878422
2035,-1.251035313522556
2036,-1.3246520231552603
2037,-1.3777774837149437
2038,-1.2950535522720081
2039,-1.285187395310924
2040,-1.259383600181935
2041,-1.2184011020358936
2042,-1.3018839686296817
2043,-1.348937947982544
2044,-1.2707676274447244
2045,-1.2426870268631773
2046,-1.2404102214106194
2047,-1.2024634638679883
2048,-1.111391245765674
2049,-1.0597836555076956
2050,-0.9702293077070865
2051,-0.8950947277726773
2052,-0.8351388508553202
2053,-0.7918795472567209
2054,-1.0954536075977688
2055,-1.2161242965833357
2056,-1.2100528153765147
2057,-1.1675524469287681
2058,-1.1637577711745049
2059,-1.1409897166489262
2060,-1.1189805972742002
2061,-1.0362566658312646
2062,-0.9535327343883289
2063,-1.1417486517997788
2064,-1.265455081388756
2065,-1.2517942486734086
2066,-1.1698292523813258
2067,-1.2123296208290726
2068,-1.1599630954202418
2069,-1.1091144403131161
2070,-1.0423281470380856
2071,-0.9967920379869283
2072,-1.215365361432483
2073,-1.279115914104103
2074,-1.2631782759361982
2075,-1.2032223990188413
2076,-1.209293880225662
2077,-1.1819722147949678
2078,-1.135677170592958
2079,-1.0506764336974646
2080,-1.065096201563664
2081,-1.2904999413668925
2082,-1.3717060025081227
2083,-1.3383128558706077
2084,-1.3109911904399132
2085,-1.2813927195566608
2086,-1.2411691565614722
2087,-1.2244725832427144
2088,-1.1561684196659787
2089,-1.1167037918216425
2090,-1.3307235043620813
2091,-1.3686702619047124
2092,-1.3648755861504493
2093,-1.3261698934569655
2094,-1.3200984122501447
2095,-1.2844284601600715
2096,-1.2282672589969774
2097,-1.1812132796441153
2098,-1.125811013631874
2099,-1.335277115267197
2100,-1.3921972515811436
2101,-1.392956186731996
2102,-1.3261698934569655
2103,-1.3254109583061129
2104,-1.3064375795347973
2105,-1.24344596201403
2106,-1.1918383717560517
2107,-1.2366155456563563
2108,-1.3709470673572703
2109,-1.3876436406760277
2110,-1.3481790128316915
2111,-1.3200984122501447
2112,-1.2745623031989874
2113,-1.2669729516904615
2114,-1.1850079553983783
2115,-1.1576862899676839
2116,-1.2958124874228607
2117,-1.3755006782623858
2118,-1.3838489649217647
2119,-1.345143272228281
2120,-1.3588041049436281
2121,-1.327687763758671
2122,-1.2889820710651871
2123,-1.24344596201403
2124,-1.1819722147949678
2125,-1.348937947982544
2126,-1.4248314630678063
2127,-1.4157242412575746
2128,-1.3975097976371118
2129,-1.386884705525175
2130,-1.323134152853555
2131,-1.3200984122501447
2132,-1.2366155456563563
2133,-1.1812132796441153
2134,-1.3163037364958816
2135,-1.3838489649217647
2136,-1.4058580842964907
2137,-1.3519736885859546
2138,-1.3709470673572703
2139,-1.327687763758671
2140,-1.2783569789532505
2141,-1.2191600371867461
2142,-1.1850079553983783
2143,-1.3663934564521545
2144,-1.405099149145638
2145,-1.3823310946200593
2146,-1.369429197055565
2147,-1.3269288286078178
2148,-1.296571422573713
2149,-1.2388923511089143
2150,-1.1766596687389992
2151,-1.1440254572523365
2152,-1.3322413746637862
2153,-1.3777774837149437
2154,-1.3853668352234698
2155,-1.3178216067975868
2156,-1.3200984122501447
2157,-1.2821516547075136
2158,-1.2358566105055038
2159,-1.1409897166489262
2160,-1.0863463857875377
2161,-1.27532123834984
2162,-1.35349155888766
2163,-1.3299645692112285
2164,-1.3238930880044077
2165,-1.2646961462379034
2166,-1.2707676274447244
2167,-1.199427723264578
2168,-1.1379539760455157
2169,-1.0886231912400957
2170,-1.2191600371867461
2171,-1.3314824395129339
2172,-1.3238930880044077
2173,-1.269249757143019
2174,-1.2669729516904615
2175,-1.2487585080699983
2176,-1.193356242057757
2177,-1.1311235596878422
2178,-1.091658931843506
2179,-1.2411691565614722
2180,-1.3056786443839448
2181,-1.2904999413668925
2182,-1.2457227674665878
2183,-1.2426870268631773
2184,-1.183490085096673
2185,-1.1660345766270628
2186,-1.0992482833520323
2187,-1.0362566658312646
2188,-1.2540710541259665
2189,-1.3109911904399132
2190,-1.2973303577245663
2191,-1.2707676274447244
2192,-1.271526562595577
2193,-1.22902619414783
2194,-1.1865258257000835
2195,-1.1242931433301684
2196,-1.0863463857875377
2197,-1.2464817026174404
2198,-1.3079554498365025
2199,-1.3322413746637862
2200,-1.2882231359143346
2201,-1.2798748492549556
2202,-1.2388923511089143
2203,-1.2017045287171357
2204,-1.127328883933579
2205,-1.0779980991281586
2206,-1.2700086922938716
2207,-1.3261698934569655
2208,-1.3163037364958816
2209,-1.2700086922938716
2210,-1.2404102214106194
2211,-1.2449638323157353
2212,-1.2108117505273674
2213,-1.1341593002912527
2214,-1.195633047510315
2215,-1.3246520231552603
2216,-1.3383128558706077
2217,-1.2859463304617769
2218,-1.2889820710651871
2219,-1.2479995729191453
2220,-1.205499204471399
2221,-1.1379539760455157
2222,-1.085587450636685
2223,-1.2533121189751137
2224,-1.357286234641923
2225,-1.3603219752453333
2226,-1.3041607740822394
2227,-1.2958124874228607
2228,-1.269249757143019
2229,-1.2047402693205462
2230,-1.171347122683031
2231,-1.1409897166489262
2232,-1.3125090607416188
2233,-1.373223872809828
2234,-1.3200984122501447
2235,-1.3071965146856501
2236,-1.3163037364958816
2237,-1.2768391086515454
2238,-1.2039813341696937
2239,-1.149338003308305
2240,-1.1417486517997788
2241,-1.341348596474018
2242,-1.365634521301302
2243,-1.3117501255907655
2244,-1.35349155888766
2245,-1.3064375795347973
2246,-1.2867052656126294
2247,-1.2070170747731044
2248,-1.1538916142134206
2249,-1.341348596474018
2250,-1.3884025758268803
2251,-1.357286234641923
2252,-1.327687763758671
2253,-1.3064375795347973
2254,-1.298848228026271
2255,-1.2601425353327877
2256,-1.3701881322064176
2257,-1.4058580842964907
2258,-1.3246520231552603
2259,-1.3109911904399132
2260,-1.3079554498365025
2261,-1.2601425353327877
2262,-1.1781775390407045
2263,-1.1235342081793156
2264,-1.0544711094517276
2265,-0.9664346319528235
2266,-1.1227752730284632
2267,-1.3223752177027024
2268,-1.3398307261723128
2269,-1.2859463304617769
2270,-1.2829105898583661
2271,-1.271526562595577
2272,-1.257106794729377
2273,-1.1819722147949678
2274,-1.107596570011411
2275,-1.222954712941009
2276,-1.3527326237368071
2277,-1.3588041049436281
2278,-1.2980892928754186
2279,-1.327687763758671
2280,-1.2775980438023977
2281,-1.2411691565614722
2282,-1.2350976753546512
2283,-1.2108117505273674
2284,-1.3269288286078178
2285,-1.3390717910214602
2286,-1.2973303577245663
2287,-1.2806337844058082
2288,-1.3011250334788291
2289,-1.2609014704836403
2290,-1.1872847608509358
2291,-1.111391245765674
2292,-1.2646961462379034
2293,-1.369429197055565
2294,-1.3739828079606806
2295,-1.362598780697891
2296,-1.3299645692112285
2297,-1.298848228026271
2298,-1.247240637768293
2299,-1.2085349450748095
2300,-1.1478201330065998
2301,-1.2958124874228607
2302,-1.373223872809828
2303,-1.3975097976371118
2304,-1.365634521301302
2305,-1.3588041049436281
2306,-1.3216162825518498
2307,-1.2942946171211556
2308,-1.205499204471399
2309,-1.1622399008727997
2310,-1.2821516547075136
2311,-1.3770185485640911
2312,-1.3975097976371118
2313,-1.3405896613231656
2314,-1.3360360504180495
2315,-1.3428664667757235
2316,-1.271526562595577
2317,-1.2411691565614722
2318,-1.1576862899676839
2319,-1.2419280917123248
2320,-1.341348596474018
2321,-1.373223872809828
2322,-1.3102322552890604
2323,-1.2889820710651871
2324,-1.2844284601600715
2325,-1.2426870268631773
2326,-1.1842490202475253
2327,-1.1341593002912527
2328,-1.265455081388756
2329,-1.3496968831333969
2330,-1.3686702619047124
2331,-1.319339477099292
2332,-1.279115914104103
2333,-1.273044432897282
2334,-1.2305440644495353
2335,-1.1667935117779153
2336,-1.0992482833520323
2337,-1.2161242965833357
2338,-1.3109911904399132
2339,-1.3109911904399132
2340,-1.2867052656126294
2341,-1.2707676274447244
2342,-1.2396512862597668
2343,-1.2221957777901566
2344,-1.1470611978557472
2345,-1.0886231912400957
2346,-1.0628193961111063
2347,-1.2533121189751137
2348,-1.3109911904399132
2349,-1.291258876517745
2350,-1.2578657298802298
2351,-1.2305440644495353
2352,-1.1804543444932625
2353,-1.135677170592958
2354,-1.0886231912400957
2355,-1.0241137034176229
2356,-1.225231518393567
2357,-1.2806337844058082
2358,-1.2578657298802298
2359,-1.2221957777901566
2360,-1.2244725832427144
2361,-1.1918383717560517
2362,-1.1569273548168313
2363,-1.0552300446025802
2364,-1.1136680512182318
2365,-1.2662140165396085
2366,-1.28974100621604
2367,-1.2313029996003884
2368,-1.2070170747731044
2369,-1.2032223990188413
2370,-1.1478201330065998
2371,-1.0840695803349798
2372,-1.0225958331159177
2373,-1.058265785205991
2374,-1.2305440644495353
2375,-1.2783569789532505
2376,-1.2411691565614722
2377,-1.2259904535444197
2378,-1.2047402693205462
2379,-1.21157068567822
2380,-1.3003660983279763
2381,-1.259383600181935
2382,-1.1728649929847361
2383,-1.1334003651404
2384,-1.1227752730284632
2385,-1.0499174985466118
2386,-0.9922384270818126
2387,-0.8981304683760877
2388,-0.8245137587433835
2389,-0.7296468648868061
2390,-0.6560301552541018
2391,-0.6446461279913126
2392,-1.0142475464565384
2393,-1.125811013631874
2394,-1.1000072185028849
2395,-1.058265785205991
2396,-1.058265785205991
2397,-1.0385334712838226
2398,-0.9785775943664654
2399,-0.9216574580525189
2400,-1.0081760652497178
2401,-1.177418603889852
2402,-1.1941151772086096
2403,-1.1455433275540419
2404,-1.149338003308305
2405,-1.1007661536537374
2406,-1.1038018942571481
2407,-1.0339798603787067
2408,-1.0461228227923487
2409,-1.2411691565614722
2410,-1.3223752177027024
2411,-1.3345181801163442
2412,-1.298848228026271
2413,-1.293535681970303
2414,-1.2525531838242614
2415,-1.1986687881137252
2416,-1.1280878190844317
2417,-1.2889820710651871
2418,-1.4202778521626904
2419,-1.4255903982186588
2420,-1.4134474358050169
2421,-1.4225546576152484
2422,-1.3800542891675016
2423,-1.3390717910214602
2424,-1.2813927195566608
2425,-1.2958124874228607
2426,-1.4605014151578792
2427,-1.5075553945107416
2428,-1.493135626644542
2429,-1.4597424800070267
2430,-1.4620192854595844
2431,-1.4187599818609853
2432,-1.3648755861504493
2433,-1.335277115267197
2434,-1.505278589058184
2435,-1.5614397902212778
2436,-1.5181804866226782
2437,-1.505278589058184
2438,-1.4984481727005103
2439,-1.4870641454377207
2440,-1.4278672036712166
2441,-1.3557683643402179
2442,-1.4764390533257843
2443,-1.5842078447468564
2444,-1.6122884453284034
2445,-1.581172104143446
2446,-1.5455021520533727
2447,-1.5523325684110465
2448,-1.5045196539073313
2449,-1.4415280363865637
2450,-1.4073759545981959
2451,-1.540948541148257
2452,-1.635056499853982
2453,-1.6403690459099505
2454,-1.5948329368587932
2455,-1.5766184932383305
2456,-1.5621987253721303
2457,-1.5196983569243836
2458,-1.4460816472916795
2459,-1.3830900297709119
2460,-1.5432253466008148
2461,-1.6115295101775504
2462,-1.6380922404573923
2463,-1.5826899744451512
2464,-1.596350807160498
2465,-1.5462610872042255
2466,-1.4999660430022157
2467,-1.4483584527442375
2468,-1.4339386848780376
2469,-1.5819310392942985
2470,-1.5948329368587932
2471,-1.568270206578951
2472,-1.549296827807636
2473,-1.5105911351141523
2474,-1.4817515993817527
2475,-1.5303234490363204
2476,-1.5902793259536774
2477,-1.51286794056671
2478,-1.4802337290800476
2479,-1.4483584527442375
2480,-1.429385073972922
2481,-1.3701881322064176
2482,-1.2821516547075136
2483,-1.1705881875321784
2484,-1.091658931843506
2485,-1.025631573719328
2486,-1.1159448566707897
2487,-1.357286234641923
2488,-1.4134474358050169
2489,-1.3861257703743224
2490,-1.3421075316248707
2491,-1.3383128558706077
2492,-1.3026429037805343
2493,-1.2457227674665878
2494,-1.1660345766270628
2495,-1.2540710541259665
2496,-1.3747417431115332
2497,-1.3990276679388172
2498,-1.3481790128316915
2499,-1.3269288286078178
2500,-1.3026429037805343
2501,-1.2639372110870508
2502,-1.2100528153765147
2503,-1.1129091160673792
2504,-1.3254109583061129
2505,-1.386884705525175
2506,-1.3967508624862592
2507,-1.3542504940385125
2508,-1.3557683643402179
2509,-1.3307235043620813
2510,-1.27532123834984
2511,-1.2373744808072091
2512,-1.1629988360236523
2513,-1.351214753435102
2514,-1.4164831764084276
2515,-1.4384922957831532
2516,-1.3891615109777329
2517,-1.3876436406760277
2518,-1.3443843370774284
2519,-1.3079554498365025
2520,-1.2487585080699983
2521,-1.193356242057757
2522,-1.3557683643402179
2523,-1.430902944274627
2524,-1.4559478042527636
2525,-1.3982687327879644
2526,-1.3906793812794382
2527,-1.369429197055565
2528,-1.3049197092330922
2529,-1.2768391086515454
2530,-1.265455081388756
2531,-1.4164831764084276
2532,-1.4278672036712166
2533,-1.4157242412575746
2534,-1.3823310946200593
2535,-1.3466611425299864
2536,-1.3322413746637862
2537,-1.2806337844058082
2538,-1.1781775390407045
2539,-1.317062671646734
2540,-1.4263493333695114
2541,-1.445322712140827
2542,-1.3997866030896697
2543,-1.3785364188657963
2544,-1.3466611425299864
2545,-1.3026429037805343
2546,-1.265455081388756
2547,-1.1888026311526414
2548,-1.3200984122501447
2549,-1.433179749727185
2550,-1.4627782206104372
2551,-1.405099149145638
2552,-1.3899204461285857
2553,-1.3565272994910702
2554,-1.341348596474018
2555,-1.2381334159580617
2556,-1.183490085096673
2557,-1.3238930880044077
2558,-1.4164831764084276
2559,-1.4301440091237745
2560,-1.3990276679388172
2561,-1.3641166509995966
2562,-1.3345181801163442
2563,-1.2942946171211556
2564,-1.2305440644495353
2565,-1.1690703172304728
2566,-1.3443843370774284
2567,-1.3770185485640911
2568,-1.3823310946200593
2569,-1.3459022073791338
2570,-1.348937947982544
2571,-1.2973303577245663
2572,-1.3140269310433237
2573,-1.4043402139947854
2574,-1.3800542891675016
2575,-1.3011250334788291
2576,-1.2996071631771238
2577,-1.2882231359143346
2578,-1.2199189723375987
2579,-1.1561684196659787
2580,-1.0514353688483171
2581,-0.9861669458749915
2582,-0.9292468095610452
2583,-0.9444255125780976
2584,-1.2464817026174404
2585,-1.3147858661941763
2586,-1.2950535522720081
2587,-1.2525531838242614
2588,-1.2677318868413139
2589,-1.2168832317341882
2590,-1.1728649929847361
2591,-1.1227752730284632
2592,-1.1030429591062954
2593,-1.2950535522720081
2594,-1.3724649376589755
2595,-1.3762596134132388
2596,-1.335277115267197
2597,-1.317062671646734
2598,-1.2639372110870508
2599,-1.2411691565614722
2600,-1.1622399008727997
2601,-1.2047402693205462
2602,-1.35349155888766
2603,-1.4142063709558694
2604,-1.3830900297709119
2605,-1.3383128558706077
2606,-1.336794985568902
2607,-1.3034018389313868
2608,-1.2525531838242614
2609,-1.2237136480918618
2610,-1.4233135927661007
2611,-1.4422869715374163
2612,-1.4157242412575746
2613,-1.3937151218828487
2614,-1.3808132243183542
2615,-1.3459022073791338
2616,-1.287464200763482
2617,-1.251035313522556
2618,-1.401304473391375
2619,-1.5060375242090365
2620,-1.4916177563428366
2621,-1.4612603503087318
2622,-1.4597424800070267
2623,-1.4202778521626904
2624,-1.3792953540166488
2625,-1.3474200776808387
2626,-1.3018839686296817
2627,-1.467331831515553
2628,-1.522734097527794
2629,-1.5037607187564788
2630,-1.4642960909121423
2631,-1.4787158587783422
2632,-1.4544299339510582
2633,-1.386884705525175
2634,-1.335277115267197
2635,-1.2882231359143346
2636,-1.4635371557612897
2637,-1.5234930326786469
2638,-1.5022428484547732
2639,-1.4642960909121423
2640,-1.4620192854595844
2641,-1.4104116952016064
2642,-1.3603219752453333
2643,-1.3049197092330922
2644,-1.3011250334788291
2645,-1.4589835448561739
2646,-1.4938945617953945
2647,-1.4460816472916795
2648,-1.4362154903305955
2649,-1.412688500654164
2650,-1.3982687327879644
2651,-1.345143272228281
2652,-1.2502763783717035
2653,-1.3496968831333969
2654,-1.4369744254814483
2655,-1.4756801181749317
2656,-1.4407691012357111
2657,-1.4339386848780376
2658,-1.4286261388220691
2659,-1.3474200776808387
2660,-1.2927767468194502
2661,-1.2358566105055038
2662,-1.3466611425299864
2663,-1.493135626644542
2664,-1.4923766914936891
2665,-1.455188869101911
2666,-1.4392512309340058
2667,-1.4180010467101327
2668,-1.3641166509995966
2669,-1.296571422573713
2670,-1.2297851292986828
2671,-1.2996071631771238
2672,-1.4195189170118379
2673,-1.411170630352459
2674,-1.4195189170118379
2675,-1.3724649376589755
2676,-1.3618398455470386
2677,-1.3345181801163442
2678,-1.2411691565614722
2679,-1.1637577711745049
2680,-1.197909852962873
2681,-1.3383128558706077
2682,-1.3906793812794382
2683,-1.367152391603007
2684,-1.333000309814639
2685,-1.3459022073791338
2686,-1.296571422573713
2687,-1.2388923511089143
2688,-1.1675524469287681
2689,-1.3269288286078178
2690,-1.4020634085422277
2691,-1.4157242412575746
2692,-1.333000309814639
2693,-1.3588041049436281
2694,-1.3261698934569655
2695,-1.287464200763482
2696,-1.2085349450748095
2697,-1.1485790681574524
2698,-1.3117501255907655
2699,-1.4210367873135432
2700,-1.4362154903305955
2701,-1.4035812788439328
2702,-1.3846079000726172
2703,-1.3595630400944807
2704,-1.3034018389313868
2705,-1.2442048971648825
2706,-1.2032223990188413
2707,-1.215365361432483
2708,-1.405099149145638
2709,-1.4605014151578792
2710,-1.433179749727185
2711,-1.3997866030896697
2712,-1.3899204461285857
2713,-1.3603219752453333
2714,-1.3125090607416188
2715,-1.251035313522556
2716,-1.171347122683031
2717,-1.3603219752453333
2718,-1.4339386848780376
2719,-1.4142063709558694
2720,-1.3739828079606806
2721,-1.386884705525175
2722,-1.3481790128316915
2723,-1.3269288286078178
2724,-1.2684908219921662
2725,-1.2335798050529463
2726,-1.4134474358050169
2727,-1.4506352581967952
2728,-1.4324208145763324
2729,-1.4043402139947854
2730,-1.3709470673572703
2731,-1.345143272228281
2732,-1.2950535522720081
2733,-1.2381334159580617
2734,-1.222954712941009
2735,-1.4339386848780376
2736,-1.4840284048343104
2737,-1.4756801181749317
2738,-1.445322712140827
2739,-1.451394193347648
2740,-1.411170630352459
2741,-1.3610809103961863
2742,-1.3003660983279763
2743,-1.287464200763482
2744,-1.4718854424206684
2745,-1.5265287732820574
2746,-1.5014839133039208
2747,-1.4832694696834579
2748,-1.4536709988002057
2749,-1.4324208145763324
2750,-1.4028223436930802
2751,-1.3322413746637862
2752,-1.2813927195566608
2753,-1.443045906688269
2754,-1.4984481727005103
2755,-1.5007249781530685
2756,-1.4119295655033115
2757,-1.3997866030896697
2758,-1.3299645692112285
2759,-1.3185805419484393
2760,-1.3102322552890604
2761,-1.412688500654164
2762,-1.503001783605626
2763,-1.5242519678294995
2764,-1.4658139612138477
2765,-1.4840284048343104
2766,-1.4362154903305955
2767,-1.4104116952016064
2768,-1.337553920719755
2769,-1.2942946171211556
2770,-1.4240725279169535
2771,-1.5014839133039208
2772,-1.506796459359889
2773,-1.4885820157394263
2774,-1.5045196539073313
2775,-1.4612603503087318
2776,-1.408893824899901
2777,-1.3466611425299864
2778,-1.3109911904399132
2779,-1.405099149145638
2780,-1.4885820157394263
2781,-1.5234930326786469
2782,-1.4916177563428366
2783,-1.5105911351141523
2784,-1.467331831515553
2785,-1.4096527600507538
2786,-1.3474200776808387
2787,-1.3041607740822394
2788,-1.447599517593385
2789,-1.5265287732820574
2790,-1.5363949302431412
2791,-1.494653496946247
2792,-1.4764390533257843
2793,-1.4817515993817527
2794,-1.4058580842964907
2795,-1.3914383164302913
2796,-1.455188869101911
2797,-1.5978686774622035
2798,-1.6206367319877821
2799,-1.5933150665570877
2800,-1.6183599265352242
2801,-1.598627612613056
2802,-1.5652344659755408
2803,-1.505278589058184
2804,-1.4802337290800476
2805,-1.5857257150485615
2806,-1.6297439537980136
2807,-1.627467148345456
2808,-1.6001454829147612
2809,-1.572823817484067
2810,-1.5621987253721303
2811,-1.581172104143446
2812,-1.5515736332601937
2813,-1.518939421773531
2814,-1.4840284048343104
2815,-1.465055026062995
2816,-1.3724649376589755
2817,-1.3185805419484393
2818,-1.2525531838242614
2819,-1.161480965721947
2820,-1.0969714778994741
2821,-1.0969714778994741
2822,-1.3436254019265759
2823,-1.3891615109777329
2824,-1.3474200776808387
2825,-1.3003660983279763
2826,-1.3254109583061129
2827,-1.3216162825518498
2828,-1.2313029996003884
2829,-1.2070170747731044
2830,-1.3481790128316915
2831,-1.4248314630678063
2832,-1.3383128558706077
2833,-1.3087143849873553
2834,-1.3102322552890604
2835,-1.2821516547075136
2836,-1.2221957777901566
2837,-1.1531326790625682
2838,-1.3200984122501447
2839,-1.369429197055565
2840,-1.3747417431115332
2841,-1.336794985568902
2842,-1.3155448013450288
2843,-1.287464200763482
2844,-1.2358566105055038
2845,-1.1705881875321784
2846,-1.1485790681574524
2847,-1.3049197092330922
2848,-1.3717060025081227
2849,-1.373223872809828
2850,-1.3557683643402179
2851,-1.298848228026271
2852,-1.2563478595785245
2853,-1.1523737439117159
2854,-1.0901410615418006
2855,-1.1144269863690845
2856,-1.3034018389313868
2857,-1.3360360504180495
2858,-1.317062671646734
2859,-1.2980892928754186
2860,-1.2669729516904615
2861,-1.22902619414783
2862,-1.2161242965833357
2863,-1.2305440644495353
2864,-1.3132679958924711
2865,-1.365634521301302
2866,-1.3018839686296817
2867,-1.285187395310924
2868,-1.2609014704836403
2869,-1.2108117505273674
2870,-1.1660345766270628
2871,-1.1508558736100103
2872,-1.298848228026271
2873,-1.3595630400944807
2874,-1.3322413746637862
2875,-1.3155448013450288
2876,-1.257106794729377
2877,-1.1895615663034937
2878,-1.0901410615418006
2879,-0.9588452804442973
2880,-0.9216574580525189
2881,-1.013488611305686
2882,-0.9300057447118978
2883,-0.8123707963297416
2884,-0.6674141825168911
2885,-0.5786187698671347
2886,-0.476162524502031
2887,-0.35245609491305385
2888,-0.12249874420470994
2889,-0.1725884641609829
2890,-0.31602720767212805
2891,-0.34486674340452766
2892,-0.34486674340452766
2893,-0.27276790407352874
2894,-0.19535651868656148
2895,-0.11187365209277328
2896,0.01562745325046683
2897,0.15830726161075945
2898,0.08544948712890785
2899,-0.1687937884067198
2900,-0.2826340610346128
2901,-0.3243754943315069
2902,-0.41620664758467396
2903,-0.4943769681224938
2904,-0.5831723807722504
2905,-0.634021035879376
2906,-0.6461639982930178
2907,-0.9300057447118978
2908,-1.1546505493642736
2909,-1.2707676274447244
2910,-1.2700086922938716
2911,-1.3459022073791338
2912,-1.3618398455470386
2913,-1.3610809103961863
2914,-1.3466611425299864
2915,-1.4582246097053213
2916,-1.6305028889488662
2917,-1.6957713119221913
2918,-1.692735571318781
2919,-1.7162625609952122
2920,-1.707155339184981
2921,-1.6563066840778553
2922,-1.5310823841871732
2923,-1.412688500654164
2924,-1.4316618794254798
2925,-1.3990276679388172
2926,-1.2942946171211556
2927,-1.131882494838695
2928,-0.9641578265002658
2929,-0.7524149194123847
2930,-0.48526974631226244
2931,-0.2750447095260866
2932,-0.09214133817060516
2933,-0.2090173514019086
2934,-0.2780804501294971
2935,-0.19535651868656148
2936,-0.08379305151122632
2937,-0.03446226670580607
2938,0.09683351439169714
2939,0.2933977184625257
2940,0.34576424387135657
2941,0.33438021660856726
2942,0.20839698156703235
2943,0.21674526822641116
2944,0.2660760530318314
2945,0.2023255003602114
2946,0.1689323537226961
2947,0.16817341857184345
2948,0.2099148518687376
2949,0.18866466764486423
2950,-0.13995425267432024
2951,-0.2940180882974021
2952,-0.4116530366795582
2953,-0.4086172960761478
2954,-0.47388571904947313
2955,-0.45794808088156813
2956,-0.5050020602344305
2957,-0.46401956208838907
2958,-0.5292879850617144
2959,-0.8313441751010572
2960,-1.0370156009821172
2961,-1.1349182354421052
2962,-1.1759007335881466
2963,-1.2320619347512407
2964,-1.3238930880044077
2965,-1.412688500654164
2966,-1.4043402139947854
2967,-1.414965306106722
2968,-1.6115295101775504
2969,-1.6540298786252976
2970,-1.5758595580874777
2971,-1.5234930326786469
2972,-1.4658139612138477
2973,-1.3079554498365025
2974,-1.0848285154858324
2975,-0.8966125980743825
2976,-0.695494783098438
2977,-0.8108529260280364
2978,-0.7630400115243213
2979,-0.6150476571080604
2980,-0.48602868146311506
2981,-0.4116530366795582
2982,-0.2340622113800451
2983,-0.039015877610921804
2984,0.14768216949882268
2985,0.14844110464967533
2986,-0.02763185034813241
2987,-0.05191777517541627
2988,-0.028390785498985053
2989,-0.057989256382237286
2990,-0.07923944060611059
2991,-0.18852610232888792
2992,-0.2530355901513606
2993,-0.3547329003656118
2994,-0.45263553482559976
2995,-0.7926384824075735
2996,-0.941389771974687
2997,-1.0734444882230434
2998,-1.2077760099239567
2999,-1.2844284601600715
3000,-1.2760801735006926
3001,-1.3102322552890604
3002,-1.3125090607416188
3003,-1.2533121189751137
3004,-1.287464200763482
3005,-1.4536709988002057
3006,-1.4620192854595844
3007,-1.3557683643402179
3008,-1.2760801735006926
3009,-1.197909852962873
3010,-1.0362566658312646
3011,-0.8510764890232252
3012,-0.5831723807722504
3013,-0.32665229978406485
3014,-0.38281350094715866
3015,-0.41696558273552664
3016,-0.33044697553832797
3017,-0.09441814362316307
3018,0.03384189687092967
3019,0.15223578040393843
3020,0.31388896753554646
3021,0.4960334037401753
3022,0.7381337168621612
3023,0.5150067825114909
3024,0.5324622909811011
3025,0.7070173756772038
3026,0.8519739894900542
3027,0.8254112592102125
3028,0.8808135252224538
3029,0.8625990816019908
3030,0.8041610749863392
3031,0.7738036689522344
3032,0.4239345644091765
3033,0.07786013562038166
3034,-0.12629341995897309
3035,-0.28035725558205493
3036,-0.3820545657963061
3037,-0.4708499784460626
3038,-0.5991100189401554
3039,-0.6529944146506914
3040,-0.6423693225387547
3041,-0.6909411721933224
3042,-0.6879054315899119
3043,-0.6249138140691445
3044,-0.637815711633639
3045,-0.5641990020009349
3046,-0.5452256232296193
3047,-0.48526974631226244
3048,-0.4275906748474632
3049,-0.3289291052366226
3050,-0.22267818411725582
3051,-0.6089761759012394
3052,-0.6947358479475855
3053,-0.6970126534001434
3054,-0.6203602031640287
3055,-0.6484408037455757
3056,-0.6355389061810811
3057,-0.587725991677366
3058,-0.5186628929497776
3059,-0.6446461279913126
3060,-0.8002278339160996
3061,-0.8146476017822994
3062,-0.7729061684854054
3063,-0.7698704278819949
3064,-0.7653168169768793
3065,-0.7144681618697537
3066,-0.6567890904049546
3067,-0.5915206674316292
3068,-0.8298263047993519
3069,-0.9208985229016664
3070,-0.9467023180306553
3071,-0.9155859768456981
3072,-0.9155859768456981
3073,-0.92772893925934
3074,-0.8632194514368672
3075,-0.7865670012007525
3076,-0.7903616769550157
3077,-1.0210779628142124
3078,-1.0643372664128117
3079,-1.071167682770485
3080,-1.0294262494735908
3081,-1.0597836555076956
3082,-1.0165243519090965
3083,-0.9451844477289502
3084,-0.903443014432056
3085,-0.8890232465658563
3086,-1.0871053209383903
3087,-1.1470611978557472
3088,-1.1334003651404
3089,-1.089382126390948
3090,-1.0704087476196325
3091,-1.0362566658312646
3092,-1.0013456488920442
3093,-0.9239342635050768
3094,-1.0597836555076956
3095,-1.1645167063253574
3096,-1.1804543444932625
3097,-1.1022840239554428
3098,-1.1106323106148215
3099,-1.0552300446025802
3100,-1.0203190276633598
3101,-0.963398891349413
3102,-0.9808543998190234
3103,-1.1622399008727997
3104,-1.1903205014543465
3105,-1.1667935117779153
3106,-1.1311235596878422
3107,-1.1349182354421052
3108,-1.129605689386137
3109,-1.2138474911307777
3110,-1.1683113820796205
3111,-1.0984893482011795
3112,-1.091658931843506
3113,-1.058265785205991
3114,-0.9998277785903388
3115,-0.92772893925934
3116,-0.8252726938942362
3117,-0.7319236703393639
3118,-0.671967793422007
3119,-0.5953153431858923
3120,-0.7083966806629326
3121,-0.9770597240647603
3122,-1.0491585633957592
3123,-1.0058992597971599
3124,-0.9725061131596444
3125,-0.9816133349698759
3126,-0.9504969937849184
3127,-0.8700498677945407
3128,-0.795674223010984
3129,-0.9049608847337611
3130,-1.0347387955295595
3131,-1.0795159694298642
3132,-1.0370156009821172
3133,-1.0203190276633598
3134,-1.007417130098865
3135,-0.967193567103676
3136,-0.8928179223201194
3137,-0.8943357926218246
3138,-1.0939357372960636
3139,-1.1447843924031893
3140,-1.1121501809165266
3141,-1.0787570342790114
3142,-1.0628193961111063
3143,-1.0339798603787067
3144,-0.9664346319528235
3145,-0.9148270416948453
3146,-1.0787570342790114
3147,-1.1728649929847361
3148,-1.1781775390407045
3149,-1.1409897166489262
3150,-1.135677170592958
3151,-1.0954536075977688
3152,-1.0438460173397908
3153,-0.999068843439486
3154,-1.0119707410039809
3155,-1.1789364741915573
3156,-1.2024634638679883
3157,-1.1918383717560517
3158,-1.1379539760455157
3159,-1.1447843924031893
3160,-1.1083555051622633
3161,-1.0499174985466118
3162,-0.9800954646681707
3163,-1.0749623585247483
3164,-1.1865258257000835
3165,-1.21157068567822
3166,-1.1478201330065998
3167,-1.1523737439117159
3168,-1.1121501809165266
3169,-1.071167682770485
3170,-1.0210779628142124
3171,-1.021836897965065
3172,-1.1523737439117159
3173,-1.1789364741915573
3174,-1.1235342081793156
3175,-1.1288467542352842
3176,-1.0939357372960636
3177,-1.0696498124687799
3178,-1.015765416758244
3179,-0.95960421559515
3180,-1.117462726972495
3181,-1.1880436960017886
3182,-1.1523737439117159
3183,-1.139471846347221
3184,-1.1038018942571481
3185,-1.0590247203568433
3186,-1.0301851846244436
3187,-0.9558095398408868
3188,-0.9929973622326653
3189,-1.1417486517997788
3190,-1.1523737439117159
3191,-1.1204984675759053
3192,-1.109873375463969
3193,-1.0977304130503267
3194,-1.0499174985466118
3195,-0.9838901404224336
3196,-0.941389771974687
3197,-0.975541853763055
3198,-1.085587450636685
3199,-1.1280878190844317
3200,-1.0992482833520323
3201,-1.0529532391500225
3202,-1.0521943039991697
3203,-1.017283287059949
3204,-0.973265048310497
3205,-0.8791570896047721
3206,-0.919380652599961
3207,-1.0370156009821172
3208,-1.0840695803349798
3209,-1.0301851846244436
3210,-1.0180422222108017
3211,-0.9914794919309601
3212,-0.9687114374053812
3213,-0.8958536629235299
3214,-0.8192012126874152
3215,-0.9444255125780976
3216,-0.995274167685223
3217,-1.015765416758244
3218,-0.9725061131596444
3219,-1.0119707410039809
3220,-0.9406308368238344
3221,-0.8783981544539196
3222,-0.8503175538723726
3223,-0.7744240387871105
3224,-0.8609426459843094
3225,-1.0119707410039809
3226,-1.0279083791718862
3227,-1.0089350004005704
3228,-0.9823722701207284
3229,-0.9315236150136029
3230,-0.9391129665221292
3231,-0.8594247756826041
3232,-0.7896027418041631
3233,-0.7501381139598269
3234,-0.9315236150136029
3235,-0.9816133349698759
3236,-0.9823722701207284
3237,-0.9322825501644557
3238,-0.9322825501644557
3239,-0.9079966253371717
3240,-0.8609426459843094
3241,-0.7933974175584262
3242,-0.7273700594342482
3243,-0.8313441751010572
3244,-0.967193567103676
3245,-0.9504969937849184
3246,-0.9178627822982558
3247,-0.9079966253371717
3248,-0.903443014432056
3249,-0.8465228781181096
3250,-0.7903616769550157
3251,-0.7205396430765746
3252,-0.8852285708115932
3253,-0.9550506046900341
3254,-0.9497380586340659
3255,-0.9019251441303507
3256,-0.8761213490013617
3257,-0.8541122296266357
3258,-0.7987099636143944
3259,-0.7304058000376586
3260,-0.659824831008365
3261,-0.7850491308990473
3262,-0.9201395877508135
3263,-0.975541853763055
3264,-0.9026840792812034
3265,-0.9057198198846137
3266,-0.8943357926218246
3267,-0.8062993151229206
3268,-0.7812544551447842
3269,-0.7046020049086695
3270,-0.7364772812444796
3271,-0.9216574580525189
3272,-0.9709882428579392
3273,-0.9315236150136029
3274,-0.9026840792812034
3275,-0.8973715332252351
3276,-0.8586658405317514
3277,-0.7888438066533104
3278,-0.7228164485291325
3279,-0.7379951515461849
3280,-0.9300057447118978
3281,-0.9770597240647603
3282,-0.9216574580525189
3283,-0.903443014432056
3284,-0.8996483386777929
3285,-0.8761213490013617
3286,-0.8078171854246259
3287,-0.7228164485291325
3288,-0.8981304683760877
3289,-0.973265048310497
3290,-0.995274167685223
3291,-0.9391129665221292
3292,-0.9360772259187188
3293,-0.8814338950573302
3294,-0.8419692672129938
3295,-0.7660757521277318
3296,-0.7083966806629326
3297,-0.8913000520184141
3298,-0.9694703725562339
3299,-1.0066581949480125
3300,-0.9649167616511183
3301,-0.9747829186122025
3302,-0.9239342635050768
3303,-0.883710700509888
3304,-0.8472818132689621
3305,-0.7873259363516051
3306,-0.8768802841522143
3307,-1.007417130098865
3308,-1.0225958331159177
3309,-0.9785775943664654
3310,-0.9975509731377807
3311,-0.9831312052715812
3312,-0.909514495638877
3313,-0.883710700509888
3314,-0.81768334238571
3315,-0.8381745914587306
3316,-1.0081760652497178
3317,-1.0446049524906431
3318,-0.9998277785903388
3319,-0.9899616216292548
3320,-0.967193567103676
3321,-0.92772893925934
3322,-0.8761213490013617
3323,-0.8078171854246259
3324,-0.9231753283542241
3325,-1.0514353688483171
3326,-1.0430870821889382
3327,-0.9967920379869283
3328,-1.003622454344602
3329,-0.9922384270818126
3330,-0.935318290767866
3331,-0.8882643114150036
3332,-0.8465228781181096
3333,-0.8351388508553202
3334,-1.0370156009821172
3335,-1.0825517100332744
3336,-1.0499174985466118
3337,-1.0499174985466118
3338,-1.0438460173397908
3339,-0.9937562973835178
3340,-0.9482201883323607
3341,-0.8844696356607405
3342,-0.8192012126874152
3343,-0.9588452804442973
3344,-1.0620604609602537
3345,-1.0924178669943585
3346,-1.0613015258094012
3347,-1.0392924064346751
3348,-1.0233547682667703
3349,-0.9785775943664654
3350,-0.9125502362422876
3351,-0.8821928302081827
3352,-0.8192012126874152
3353,-0.995274167685223
3354,-1.0688908773179273
3355,-1.067373007016222
3356,-1.0423281470380856
3357,-1.0089350004005704
3358,-0.9899616216292548
3359,-0.9436665774272449
3360,-0.8806749599064774
3361,-0.8419692672129938
3362,-1.0301851846244436
3363,-1.0704087476196325
3364,-1.0635783312619589
3365,-0.9983099082886335
3366,-1.003622454344602
3367,-0.9429076422763923
3368,-0.8950947277726773
3369,-0.8503175538723726
3370,-0.7789776496922264
3371,-0.9687114374053812
3372,-1.0423281470380856
3373,-1.0597836555076956
3374,-1.015765416758244
3375,-1.0195600925125068
3376,-0.9717471780087917
3377,-0.9391129665221292
3378,-0.8677730623419828
3379,-0.7850491308990473
3380,-0.8730856083979512
3381,-1.0423281470380856
3382,-1.0575068500551381
3383,-1.0188011573616542
3384,-1.0210779628142124
3385,-0.9823722701207284
3386,-0.9641578265002658
3387,-0.8988894035269404
3388,-0.8305852399502045
3389,-0.8207190829891204
3390,-1.0013456488920442
3391,-1.0666140718653694
3392,-1.0324619900770016
3393,-0.9907205567801074
3394,-0.9975509731377807
3395,-0.9649167616511183
3396,-0.9133091713931402
3397,-0.8260316290450888
3398,-0.9125502362422876
3399,-1.0423281470380856
3400,-1.065096201563664
3401,-0.9914794919309601
3402,-1.0150064816073912
3403,-0.995274167685223
3404,-0.9315236150136029
3405,-0.8647373217385724
3406,-0.8199601478382679
3407,-0.8662551920402776
3408,-1.0468817579432015
3409,-1.0825517100332744
3410,-1.0620604609602537
3411,-1.0483996282449066
3412,-1.031703054926149
3413,-0.9626399561985606
3414,-0.9482201883323607
3415,-1.0954536075977688
3416,-1.111391245765674
3417,-1.03777453613297
3418,-1.0119707410039809
3419,-0.9960331028360758
3420,-0.9292468095610452
3421,-0.8662551920402776
3422,-0.8040225096703628
3423,-0.7175039024731641
3424,-0.6795571449305331
3425,-0.5763419644145767
3426,-0.7508970491106794
3427,-0.9641578265002658
3428,-0.9945152325343706
3429,-0.9535327343883289
3430,-0.9345593556170135
3431,-0.9125502362422876
3432,-0.8859875059624458
3433,-0.8290673696484994
3434,-0.7827723254464894
3435,-0.9618810210477078
3436,-1.0271494440210334
3437,-1.021836897965065
3438,-0.9763007889139077
3439,-0.9664346319528235
3440,-0.9231753283542241
3441,-0.8943357926218246
3442,-0.8389335266095833
3443,-0.865496256889425
3444,-1.0301851846244436
3445,-1.0506764336974646
3446,-1.0468817579432015
3447,-1.0544711094517276
3448,-1.0613015258094012
3449,-1.0263905088701806
3450,-0.9611220858968553
3451,-0.9117913010914349
3452,-1.0294262494735908
3453,-1.1470611978557472
3454,-1.1941151772086096
3455,-1.1576862899676839
3456,-1.129605689386137
3457,-1.1235342081793156
3458,-1.0977304130503267
3459,-1.011211805853128
3460,-0.9687114374053812
3461,-1.1106323106148215
3462,-1.1903205014543465
3463,-1.2259904535444197
3464,-1.1683113820796205
3465,-1.16527564147621
3466,-1.1538916142134206
3467,-1.0825517100332744
3468,-1.0294262494735908
3469,-0.9876848161766969
3470,-1.1728649929847361
3471,-1.2214368426393039
3472,-1.2017045287171357
3473,-1.1827311499458204
3474,-1.1622399008727997
3475,-1.1167037918216425
3476,-1.0719266179213378
3477,-1.0043813894954545
3478,-1.1227752730284632
3479,-1.205499204471399
3480,-1.2184011020358936
3481,-1.1463022627048944
3482,-1.1599630954202418
3483,-1.125811013631874
3484,-1.0688908773179273
3485,-1.1159448566707897
3486,-1.2221957777901566
3487,-1.1963919826611675
3488,-1.091658931843506
3489,-1.1106323106148215
3490,-1.053712174300875
3491,-1.009693935551423
3492,-0.9072376901863191
3493,-0.8366567211570255
3494,-0.7949152878601313
3495,-0.7000483940035539
3496,-0.695494783098438
3497,-1.0203190276633598
3498,-1.0544711094517276
3499,-1.0415692118872328
3500,-1.0089350004005704
3501,-1.0263905088701806
3502,-0.9892026864784021
3503,-0.8806749599064774
3504,-0.7782187145413738
3505,-0.663619506762628
3506,-0.919380652599961
3507,-1.0210779628142124
3508,-1.0514353688483171
3509,-0.9330414853153082
3510,-0.9482201883323607
3511,-0.9558095398408868
3512,-0.9064787550354664
3513,-0.8541122296266357
3514,-0.8541122296266357
3515,-1.0521943039991697
3516,-1.0886231912400957
3517,-1.0840695803349798
3518,-1.0605425906585484
3519,-1.0825517100332744
3520,-1.0081760652497178
3521,-0.9467023180306553
3522,-0.8685319974928356
3523,-0.9649167616511183
3524,-1.1242931433301684
3525,-1.1599630954202418
3526,-1.1235342081793156
3527,-1.0954536075977688
3528,-1.0825517100332744
3529,-1.0461228227923487
3530,-0.9679525022545288
3531,-0.9102734307897297
3532,-0.9626399561985606
3533,-1.1440254572523365
3534,-1.171347122683031
3535,-1.107596570011411
3536,-1.0946946724469164
3537,-1.0370156009821172
3538,-0.9975509731377807
3539,-0.9588452804442973
3540,-0.9178627822982558
3541,-0.9262110689576346
3542,-1.1007661536537374
3543,-1.1667935117779153
3544,-1.1326414299895475
3545,-1.0939357372960636
3546,-1.0878642560892429
3547,-1.0461228227923487
3548,-1.0089350004005704
3549,-0.9284878744101925
3550,-0.977818659215613
3551,-1.1242931433301684
3552,-1.1167037918216425
3553,-1.1235342081793156
3554,-1.091658931843506
3555,-1.0726855530721906
3556,-1.0347387955295595
3557,-0.9717471780087917
3558,-0.9444255125780976
3559,-1.122016337877611
3560,-1.1569273548168313
3561,-1.1531326790625682
3562,-1.1136680512182318
3563,-1.0939357372960636
3564,-0.95960421559515
3565,-0.8905411168675614
3566,-1.0833106451841272
3567,-1.1455433275540419
3568,-1.0825517100332744
3569,-1.0529532391500225
3570,-1.0415692118872328
3571,-0.9816133349698759
3572,-0.9542916695391815
3573,-0.8746034786996565
3574,-0.7987099636143944
3575,-0.7554506600157951
3576,-0.6772803394779753
3577,-0.7926384824075735
3578,-1.0165243519090965
3579,-1.0590247203568433
3580,-1.017283287059949
3581,-1.0104528707022755
3582,-0.995274167685223
3583,-0.9383540313712765
3584,-0.9087555604880244
3585,-0.8154065369331521
3586,-0.8738445435488038
3587,-1.0362566658312646
3588,-1.109873375463969
3589,-1.0696498124687799
3590,-1.0400513415855277
3591,-1.021836897965065
3592,-0.9649167616511183
3593,-0.9231753283542241
3594,-0.8571479702300463
3595,-1.0370156009821172
3596,-1.1212574027267581
3597,-1.131882494838695
3598,-1.0795159694298642
3599,-1.085587450636685
3600,-1.0294262494735908
3601,-0.95960421559515
3602,-0.8905411168675614
3603,-0.8472818132689621
3604,-1.0772391639773062
3605,-1.1455433275540419
3606,-1.1478201330065998
3607,-1.1159448566707897
3608,-1.1136680512182318
3609,-1.0825517100332744
3610,-1.0339798603787067
3611,-0.9588452804442973
3612,-0.9224163932033715
3613,-1.1151859215199371
3614,-1.1880436960017886
3615,-1.1554094845151262
3616,-1.107596570011411
3617,-1.1106323106148215
3618,-1.0628193961111063
3619,-1.0301851846244436
3620,-0.9664346319528235
3621,-1.0058992597971599
3622,-1.1402307814980737
3623,-1.1645167063253574
3624,-1.1265699487827265
3625,-1.0878642560892429
3626,-1.0962125427486216
3627,-1.047640693094054
3628,-0.9823722701207284
3629,-0.9451844477289502
3630,-1.1060786997097058
3631,-1.1546505493642736
3632,-1.1235342081793156
3633,-1.0992482833520323
3634,-1.0984893482011795
3635,-1.0446049524906431
3636,-1.003622454344602
3637,-0.9550506046900341
3638,-0.8791570896047721
3639,-1.0886231912400957
3640,-1.173623928135589
3641,-1.1227752730284632
3642,-1.089382126390948
3643,-1.1000072185028849
3644,-1.0666140718653694
3645,-0.999068843439486
3646,-0.9391129665221292
3647,-0.8617015811351619
3648,-1.0840695803349798
3649,-1.1485790681574524
3650,-1.1463022627048944
3651,-1.1015250888045902
3652,-1.0908999966926534
3653,-1.0385334712838226
3654,-0.9838901404224336
3655,-0.9239342635050768
3656,-0.8487996835706674
3657,-1.0294262494735908
3658,-1.111391245765674
3659,-1.1068376348605584
3660,-1.0575068500551381
3661,-1.0575068500551381
3662,-1.0279083791718862
3663,-0.9709882428579392
3664,-0.8821928302081827
3665,-0.8594247756826041
3666,-1.0567479149042853
3667,-1.105319764558853
3668,-1.0575068500551381
3669,-1.0203190276633598
3670,-1.021836897965065
3671,-0.9664346319528235
3672,-0.925452133806782
3673,-0.827549499346794
3674,-0.7668346872785844
3675,-1.0005867137411917
3676,-1.0817927748824219
3677,-1.0764802288264537
3678,-1.0248726385684754
3679,-1.0043813894954545
3680,-0.9694703725562339
3681,-0.909514495638877
3682,-0.8328620454027624
3683,-0.7600042709209108
3684,-0.935318290767866
3685,-1.0461228227923487
3686,-1.0749623585247483
3687,-1.0058992597971599
3688,-0.999068843439486
3689,-0.9626399561985606
3690,-0.9239342635050768
3691,-0.8450050078164043
3692,-0.7592453357700581
3693,-0.8791570896047721
3694,-1.0339798603787067
3695,-1.0415692118872328
3696,-0.9816133349698759
3697,-0.95960421559515
3698,-0.9406308368238344
3699,-0.8897821817167089
3700,-0.8442460726655517
3701,-0.7600042709209108
3702,-0.973265048310497
3703,-1.0271494440210334
3704,-0.9854080107241389
3705,-0.9588452804442973
3706,-0.9474612531815082
3707,-0.9133091713931402
3708,-0.8609426459843094
3709,-0.8639783865877197
3710,-0.9983099082886335
3711,-0.9967920379869283
3712,-0.9171038471474033
3713,-0.909514495638877
3714,-0.8958536629235299
3715,-0.8480407484198148
3716,-0.7918795472567209
3717,-0.671967793422007
3718,-0.6135297868063552
3719,-0.5641990020009349
3720,-0.8700498677945407
3721,-0.9725061131596444
3722,-0.9709882428579392
3723,-0.9269700041084873
3724,-0.9110323659405822
3725,-0.8647373217385724
3726,-0.8487996835706674
3727,-0.7425487624513005
3728,-0.7046020049086695
3729,-0.963398891349413
3730,-1.017283287059949
3731,-1.0225958331159177
3732,-0.957327410142592
3733,-0.967193567103676
3734,-0.9224163932033715
3735,-0.8685319974928356
3736,-0.7774597793905211
3737,-0.7987099636143944
3738,-1.0150064816073912
3739,-1.0620604609602537
3740,-1.0332209252278541
3741,-0.9800954646681707
3742,-0.9725061131596444
3743,-0.9542916695391815
3744,-0.887505376264151
3745,-0.8586658405317514
3746,-1.03777453613297
3747,-1.0810338397315693
3748,-1.0483996282449066
3749,-0.9861669458749915
3750,-1.0119707410039809
3751,-0.95960421559515
3752,-0.9004072738286456
3753,-0.8472818132689621
3754,-1.0301851846244436
3755,-1.127328883933579
3756,-1.1850079553983783
3757,-1.1409897166489262
3758,-1.1197395324250528
3759,-1.0840695803349798
3760,-1.0438460173397908
3761,-0.9808543998190234
3762,-1.0225958331159177
3763,-1.2032223990188413
3764,-1.2388923511089143
3765,-1.2184011020358936
3766,-1.2070170747731044
3767,-1.1721060578338836
3768,-1.1379539760455157
3769,-1.0764802288264537
3770,-1.0051403246463073
3771,-1.2017045287171357
3772,-1.2631782759361982
3773,-1.2631782759361982
3774,-1.2244725832427144
3775,-1.2077760099239567
3776,-1.1637577711745049
3777,-1.149338003308305
3778,-1.105319764558853
3779,-1.035497730680412
3780,-1.2168832317341882
3781,-1.279115914104103
3782,-1.2813927195566608
3783,-1.2191600371867461
3784,-1.2138474911307777
3785,-1.1925973069069045
3786,-1.1463022627048944
3787,-1.089382126390948
3788,-1.1280878190844317
3789,-1.2578657298802298
3790,-1.3071965146856501
3791,-1.185766890549231
3792,-1.1789364741915573
3793,-1.1470611978557472
3794,-1.1068376348605584
3795,-1.0704087476196325
3796,-1.0142475464565384
3797,-1.1918383717560517
3798,-1.27532123834984
3799,-1.2464817026174404
3800,-1.2426870268631773
3801,-1.2130885559799254
3802,-1.1721060578338836
3803,-1.135677170592958
3804,-1.0658551367145168
3805,-1.015765416758244
3806,-1.1804543444932625
3807,-1.2722854977464295
3808,-1.2813927195566608
3809,-1.232820869902093
3810,-1.2320619347512407
3811,-1.1918383717560517
3812,-1.1349182354421052
3813,-1.0802749045807165
3814,-1.0180422222108017
3815,-1.067373007016222
3816,-1.2404102214106194
3817,-1.2358566105055038
3818,-1.2085349450748095
3819,-1.1759007335881466
3820,-1.1516148087608629
3821,-1.1326414299895475
3822,-1.0514353688483171
3823,-0.963398891349413
3824,-0.9580863452934446
3825,-1.1409897166489262
3826,-1.185766890549231
3827,-1.173623928135589
3828,-1.135677170592958
3829,-1.1038018942571481
3830,-1.065096201563664
3831,-1.0188011573616542
3832,-0.9322825501644557
3833,-1.011211805853128
3834,-1.1470611978557472
3835,-1.1478201330065998
3836,-1.1129091160673792
3837,-1.1022840239554428
3838,-1.0696498124687799
3839,-1.0165243519090965
3840,-0.9459433828798028
3841,-0.8950947277726773
3842,-0.9262110689576346
3843,-1.107596570011411
3844,-1.1409897166489262
3845,-1.1189805972742002
3846,-1.0939357372960636
3847,-1.058265785205991
3848,-1.0248726385684754
3849,-0.9391129665221292
3850,-0.9208985229016664
3851,-0.8548711647774884
3852,-1.0241137034176229
3853,-1.1235342081793156
3854,-1.1045608294080005
3855,-1.0142475464565384
3856,-0.8351388508553202
3857,-0.8374156563078781
3858,-0.8692909326436882
3859,-0.8321031102519097
3860,-0.7842901957481947
3861,-0.8617015811351619
3862,-1.0385334712838226
3863,-1.058265785205991
3864,-1.0127296761548337
3865,-1.0013456488920442
3866,-0.9899616216292548
3867,-0.9307646798627505
3868,-0.8913000520184141
3869,-0.7949152878601313
3870,-0.9315236150136029
3871,-1.0294262494735908
3872,-1.0499174985466118
3873,-0.975541853763055
3874,-0.9618810210477078
3875,-0.9140681065439928
3876,-0.8692909326436882
3877,-0.8146476017822994
3878,-0.7281289945851008
3879,-0.9322825501644557
3880,-1.0362566658312646
3881,-1.0499174985466118
3882,-1.0043813894954545
3883,-1.0013456488920442
3884,-0.9421487071255397
3885,-0.8465228781181096
3886,-0.8017457042178049
3887,-0.7190217727748693
3888,-0.9330414853153082
3889,-1.0119707410039809
3890,-1.0461228227923487
3891,-0.9838901404224336
3892,-0.9709882428579392
3893,-0.9178627822982558
3894,-0.8814338950573302
3895,-0.8138886666314469
3896,-0.7812544551447842
3897,-0.9793365295173182
3898,-1.0370156009821172
3899,-1.0332209252278541
3900,-0.9664346319528235
3901,-0.9520148640866236
3902,-0.9322825501644557
3903,-0.8791570896047721
3904,-0.827549499346794
3905,-0.9117913010914349
3906,-1.0233547682667703
3907,-1.0499174985466118
3908,-0.9618810210477078
3909,-0.9504969937849184
3910,-0.941389771974687
3911,-0.8859875059624458
3912,-0.8260316290450888
3913,-0.7364772812444796
3914,-0.9542916695391815
3915,-1.0430870821889382
3916,-1.0499174985466118
3917,-1.003622454344602
3918,-1.0013456488920442
3919,-0.9580863452934446
3920,-0.9110323659405822
3921,-0.8374156563078781
3922,-0.8100939908771837
3923,-1.0203190276633598
3924,-1.0878642560892429
3925,-1.0817927748824219
3926,-1.0430870821889382
3927,-1.031703054926149
3928,-0.9937562973835178
3929,-0.9315236150136029
3930,-0.8746034786996565
3931,-0.783531260597342
3932,-1.0142475464565384
3933,-1.0977304130503267
3934,-1.0817927748824219
3935,-1.0286673143227385
3936,-1.0370156009821172
3937,-1.0066581949480125
3938,-0.9345593556170135
3939,-0.9019251441303507
3940,-0.8935768574709719
3941,-1.047640693094054
3942,-1.0825517100332744
3943,-1.047640693094054
3944,-1.021836897965065
3945,-1.0188011573616542
3946,-0.9444255125780976
3947,-0.8746034786996565
3948,-0.7842901957481947
3949,-0.9580863452934446
3950,-1.0772391639773062
3951,-1.0810338397315693
3952,-1.0021045840428968
3953,-1.0066581949480125
3954,-0.9816133349698759
3955,-0.9459433828798028
3956,-0.8730856083979512
3957,-0.7896027418041631
3958,-0.9603631507460026
3959,-1.0863463857875377
3960,-1.0901410615418006
3961,-1.0529532391500225
3962,-1.0294262494735908
3963,-1.003622454344602
3964,-0.963398891349413
3965,-0.9026840792812034
3966,-0.8229958884416783
3967,-0.9459433828798028
3968,-1.1159448566707897
3969,-1.1212574027267581
3970,-1.0802749045807165
3971,-1.091658931843506
3972,-1.0362566658312646
3973,-0.9793365295173182
3974,-0.9467023180306553
3975,-0.8670141271911302
3976,-1.0165243519090965
3977,-1.1106323106148215
3978,-1.1288467542352842
3979,-1.0461228227923487
3980,-1.0567479149042853
3981,-1.0370156009821172
3982,-0.9929973622326653
3983,-0.9072376901863191
3984,-0.8533532944757831
3985,-1.053712174300875
3986,-1.0962125427486216
3987,-1.0908999966926534
3988,-1.045363887641496
3989,-1.031703054926149
3990,-1.0195600925125068
3991,-0.9049608847337611
3992,-0.8973715332252351
3993,-0.8389335266095833
3994,-1.0901410615418006
3995,-1.1204984675759053
3996,-1.091658931843506
3997,-1.045363887641496
3998,-1.0483996282449066
3999,-1.015765416758244
4000,-0.9565684749917394
4001,-0.909514495638877
4002,-0.8343799157044676
4003,-1.0597836555076956
4004,-1.1432665221014842
4005,-1.1068376348605584
4006,-1.0787570342790114
4007,-1.0779980991281586
4008,-1.0567479149042853
4009,-1.0013456488920442
4010,-0.9383540313712765
4011,-0.84955861872152
4012,-1.0491585633957592
4013,-1.1341593002912527
4014,-1.1470611978557472
4015,-1.0499174985466118
4016,-1.0643372664128117
4017,-1.0734444882230434
4018,-0.9967920379869283
4019,-0.935318290767866
4020,-0.9148270416948453
4021,-1.1265699487827265
4022,-1.1455433275540419
4023,-1.1485790681574524
4024,-1.1038018942571481
4025,-1.1106323106148215
4026,-1.0704087476196325
4027,-0.9960331028360758
4028,-0.9315236150136029
4029,-0.8472818132689621
4030,-1.0810338397315693
4031,-1.161480965721947
4032,-1.1721060578338836
4033,-1.1447843924031893
4034,-1.1045608294080005
4035,-1.0825517100332744
4036,-1.0195600925125068
4037,-0.941389771974687
4038,-0.9072376901863191
4039,-1.0180422222108017
4040,-1.1364361057438106
4041,-1.183490085096673
4042,-1.1235342081793156
4043,-1.129605689386137
4044,-1.0817927748824219
4045,-1.0400513415855277
4046,-0.9876848161766969
4047,-0.9201395877508135
4048,-0.8852285708115932
4049,-1.1030429591062954
4050,-1.177418603889852
4051,-1.1470611978557472
4052,-1.1068376348605584
4053,-1.0871053209383903
4054,-1.0514353688483171
4055,-0.9884437513275495
4056,-0.9474612531815082
4057,-0.9527737992374764
4058,-1.1151859215199371
4059,-1.1637577711745049
4060,-1.089382126390948
4061,-1.075721293675601
4062,-1.0749623585247483
4063,-1.0559889797534328
4064,-0.9626399561985606
4065,-0.9125502362422876
4066,-0.8639783865877197
4067,-1.0590247203568433
4068,-1.1341593002912527
4069,-1.1204984675759053
4070,-1.0764802288264537
4071,-1.0658551367145168
4072,-1.0552300446025802
4073,-1.0089350004005704
4074,-0.9467023180306553
4075,-0.8601837108334567
4076,-1.065096201563664
4077,-1.125811013631874
4078,-1.1167037918216425
4079,-1.0764802288264537
4080,-1.0688908773179273
4081,-1.071167682770485
4082,-1.0005867137411917
4083,-0.9694703725562339
4084,-0.8996483386777929
4085,-1.0491585633957592
4086,-1.1235342081793156
4087,-1.1068376348605584
4088,-1.0225958331159177
4089,-0.9998277785903388
4090,-0.9421487071255397
4091,-0.9284878744101925
4092,-0.8594247756826041
4093,-0.8768802841522143
4094,-1.0188011573616542
4095,-1.0681319421670747
4096,-1.0142475464565384
4097,-0.975541853763055
4098,-0.957327410142592
4099,-0.9231753283542241
4100,-0.8404513969112886
4101,-0.7706293630328475
4102,-0.8032635745195102
4103,-1.0332209252278541
4104,-1.065096201563664
4105,-1.0081760652497178
4106,-0.9398719016729817
4107,-0.8305852399502045
4108,-0.6089761759012394
4109,-0.420001323338937
4110,-0.32513442948235954
4111,-0.11794513329959419
4112,-0.13160596601494137
4113,-0.08379305151122632
4114,0.019422129004729928
4115,0.15678939130905414
4116,0.1674144834209908
4117,0.20156656520935878
4118,0.25317415546733696
4119,0.3609429468884089
4120,0.47933683042141767
4121,0.30554068087616765
4122,0.06040462715077135
4123,-0.08379305151122632
4124,-0.14223105812687803
4125,-0.34638461370623297
4126,-0.45111766452389446
4127,-0.4981716438767569
4128,-0.5034841899327253
4129,-0.47919826510544145
4130,-0.7546917248649425
4131,-0.9171038471474033
4132,-1.0544711094517276
4133,-1.0681319421670747
4134,-1.1060786997097058
4135,-1.1425075869506314
4136,-1.0954536075977688
4137,-1.0666140718653694
4138,-0.9838901404224336
4139,-1.0742034233738957
4140,-1.1888026311526414
4141,-1.1827311499458204
4142,-1.0613015258094012
4143,-0.9747829186122025
4144,-0.8358977860061728
4145,-0.6393335819353442
4146,-0.49058229236823075
4147,-0.28718767193972855
4148,-0.16955272355757237
4149,-0.3858492415505692
4150,-0.31147359676701236
4151,-0.2666964228667078
4152,-0.10276643028254182
4153,-0.026113980046427232
4154,0.09303883863743405
4155,0.24710267426051596
4156,0.3996486395818926
4157,0.534739096433659
4158,0.3905414177716612
4159,0.08165481137464475
4160,0.008797036892793177
4161,-0.029149720649837688
4162,-0.03825694246006916
4163,-0.04053374791262698
4164,-0.08379305151122632
4165,-0.13615957692005712
4166,-0.12477554965726785
4167,-0.23102647077663463
4168,-0.4731267838986205
4169,-0.539913077173651
4170,-0.5315647905142722
4171,-0.53384159596683
4172,-0.6112529813537974
4173,-0.625672749219997
4174,-0.5672347426043454
4175,-0.5786187698671347
4176,-0.6211191383148814
4177,-0.9269700041084873
4178,-1.0719266179213378
4179,-1.1364361057438106
4180,-1.1425075869506314
4181,-1.0886231912400957
4182,-1.025631573719328
4183,-0.9687114374053812
4184,-0.8601837108334567
4185,-0.695494783098438
4186,-0.6089761759012394
4187,-0.7964331581618366
4188,-0.7061198752103748
4189,-0.5414309474753563
4190,-0.28035725558205493
4191,-0.12401661450641521
4192,0.08165481137464475
4193,0.19170040824827467
4194,0.3192015135915149
4195,0.496792338891028
4196,0.42013988865491336
4197,0.07406545986611855
4198,-0.026872915197279874
4199,-0.12098087390300476
4200,-0.2477230440953923
4201,-0.3767420197403377
4202,-0.41620664758467396
4203,-0.4807161354071467
4204,-0.5133503468938093
4205,-0.7387540866970375
4206,-1.0119707410039809
4207,-1.2070170747731044
4208,-1.3087143849873553
4209,-1.3982687327879644
4210,-1.4870641454377207
4211,-1.5758595580874777
4212,-1.553091503561899
4213,-1.522734097527794
4214,-1.5280466435837625
4215,-1.758762929442959
4216,-1.8270670930196948
4217,-1.7838077894210953
4218,-1.6722443222457604
4219,-1.6024222883673194
4220,-1.4847873399851632
4221,-1.369429197055565
4222,-1.2259904535444197
4223,-0.9535327343883289
4224,-0.8108529260280364
4225,-0.6894233018916172
4226,-0.5778598347162821
4227,-0.3577686409690223
4228,-0.14982040963540424
4229,0.023975739909845663
4230,0.20536124096362188
4231,0.31844257844066226
4232,0.41634521290065024
4233,0.5317033558302485
4234,0.004243425987677541
4235,-0.30843785616360186
4236,-0.3957153985116532
4237,-0.35169715976220123
4238,-0.38964391730483233
4239,-0.4116530366795582
4240,-0.4108941015287056
4241,-0.38660817670142184
4242,-0.3016074398059283
4243,-0.4647784972392417
4244,-0.6803160800813857
4245,-0.7501381139598269
4246,-0.7053609400595222
4247,-0.6727267285728595
4248,-0.6924590424950277
4249,-0.5998689540910079
4250,-0.5201807632514829
4251,-0.4298674803000212
4252,-0.6362978413319338
4253,-0.7767008442396686
4254,-0.8184422775365626
4255,-0.7911206121058683
4256,-0.7918795472567209
4257,-0.7964331581618366
4258,-0.7554506600157951
4259,-0.6689320528185964
4260,-0.6241548789182918
4261,-0.8730856083979512
4262,-0.9588452804442973
4263,-0.9603631507460026
4264,-0.9406308368238344
4265,-0.9338004204661607
4266,-0.9155859768456981
4267,-0.8670141271911302
4268,-0.7751829739379632
4269,-0.7046020049086695
4270,-0.9504969937849184
4271,-1.0628193961111063
4272,-1.031703054926149
4273,-0.9922384270818126
4274,-0.9945152325343706
4275,-0.9649167616511183
4276,-0.9102734307897297
4277,-0.8343799157044676
4278,-0.7554506600157951
4279,-0.9785775943664654
4280,-1.0734444882230434
4281,-1.0901410615418006
4282,-1.025631573719328
4283,-1.0446049524906431
4284,-0.9892026864784021
4285,-0.9330414853153082
4286,-0.8700498677945407
4287,-0.8950947277726773
4288,-1.0878642560892429
4289,-1.1235342081793156
4290,-1.0559889797534328
4291,-1.065096201563664
4292,-1.021836897965065
4293,-0.9641578265002658
4294,-0.9224163932033715
4295,-0.8192012126874152
4296,-0.9360772259187188
4297,-1.1068376348605584
4298,-1.1478201330065998
4299,-1.0848285154858324
4300,-1.1167037918216425
4301,-1.0681319421670747
4302,-1.0468817579432015
4303,-0.9338004204661607
4304,-0.8237548235925309
4305,-0.8973715332252351
4306,-1.1334003651404
4307,-1.1106323106148215
4308,-1.0924178669943585
4309,-1.0408102767363803
4310,-1.017283287059949
4311,-0.9717471780087917
4312,-0.8867464411132984
4313,-0.8305852399502045
4314,-0.9269700041084873
4315,-1.1015250888045902
4316,-1.1645167063253574
4317,-1.117462726972495
4318,-1.1015250888045902
4319,-1.0483996282449066
4320,-0.9694703725562339
4321,-0.8988894035269404
4322,-0.8169244072348574
4323,-1.0263905088701806
4324,-1.0817927748824219
4325,-1.0924178669943585
4326,-1.0233547682667703
4327,-1.031703054926149
4328,-0.9846490755732864
4329,-0.9474612531815082
4330,-0.8579069053808989
4331,-0.8138886666314469
4332,-1.0438460173397908
4333,-1.0977304130503267
4334,-1.0848285154858324
4335,-1.0438460173397908
4336,-1.025631573719328
4337,-0.9793365295173182
4338,-0.9391129665221292
4339,-0.8730856083979512
4340,-0.7941563527092788
4341,-1.0666140718653694
4342,-1.1227752730284632
4343,-1.1083555051622633
4344,-1.03777453613297
4345,-1.0225958331159177
4346,-0.9899616216292548
4347,-0.9307646798627505
4348,-0.833620980553615
4349,-0.7880848715024578
4350,-1.0142475464565384
4351,-1.0643372664128117
4352,-1.0309441197752964
4353,-1.0051403246463073
4354,-0.9262110689576346
4355,-0.9269700041084873
4356,-0.8852285708115932
4357,-0.8070582502737733
4358,-0.7288879297359534
4359,-0.9876848161766969
4360,-1.045363887641496
4361,-0.9975509731377807
4362,-0.9702293077070865
4363,-0.9694703725562339
4364,-0.9262110689576346
4365,-0.8723266732470987
4366,-0.7774597793905211
4367,-0.8548711647774884
4368,-1.0309441197752964
4369,-1.0613015258094012
4370,-0.9998277785903388
4371,-0.9747829186122025
4372,-0.9603631507460026
4373,-0.9049608847337611
4374,-0.81768334238571
4375,-0.7744240387871105
4376,-0.7053609400595222
4377,-0.9967920379869283
4378,-1.0643372664128117
4379,-1.0233547682667703
4380,-0.9725061131596444
4381,-0.9504969937849184
4382,-0.8958536629235299
4383,-0.8450050078164043
4384,-0.7387540866970375
4385,-0.6734856637237122
4386,-0.8685319974928356
4387,-0.9626399561985606
4388,-0.9231753283542241
4389,-0.8222369532908257
4390,-0.8283084344976467
4391,-0.81768334238571
4392,-0.7569685303175003
4393,-0.6841107558356488
4394,-0.6127708516555025
4395,-0.6924590424950277
4396,-0.887505376264151
4397,-0.92772893925934
4398,-0.8586658405317514
4399,-0.8571479702300463
4400,-0.8404513969112886
4401,-0.8025046393686576
4402,-0.7410308921495954
4403,-0.6362978413319338
4404,-0.7873259363516051
4405,-0.9269700041084873
4406,-0.9019251441303507
4407,-0.8396924617604359
4408,-0.8229958884416783
4409,-0.795674223010984
4410,-0.7288879297359534
4411,-0.6484408037455757
4412,-0.5808955753196925
4413,-0.6825928855339436
4414,-0.871567738096246
4415,-0.9262110689576346
4416,-0.8298263047993519
4417,-0.7933974175584262
4418,-0.795674223010984
4419,-0.7425487624513005
4420,-0.7015662643052591
4421,-0.625672749219997
4422,-0.5900027971299239
4423,-0.8723266732470987
4424,-0.963398891349413
4425,-0.9125502362422876
4426,-0.7729061684854054
4427,-0.8062993151229206
4428,-0.7774597793905211
4429,-0.7228164485291325
4430,-0.6461639982930178
4431,-0.5634400668500822
4432,-0.8366567211570255
4433,-0.8928179223201194
4434,-0.903443014432056
4435,-0.8518354241740779
4436,-0.7865670012007525
4437,-0.7053609400595222
4438,-0.5915206674316292
4439,-0.5490202989838824
4440,-0.539913077173651
4441,-0.7569685303175003
4442,-0.8305852399502045
4443,-0.7584864006192056
4444,-0.7129502915680485
4445,-0.7266111242833956
4446,-0.7235753836799851
4447,-0.6484408037455757
4448,-0.5573685856432613
4449,-0.7592453357700581
4450,-0.8821928302081827
4451,-0.8738445435488038
4452,-0.8229958884416783
4453,-0.8343799157044676
4454,-0.8047814448212155
4455,-0.7569685303175003
4456,-0.6871464964390593
4457,-0.6347799710302285
4458,-0.8806749599064774
4459,-0.9967920379869283
4460,-1.017283287059949
4461,-0.9011662089794982
4462,-0.8950947277726773
4463,-0.8692909326436882
4464,-0.7804955199939316
4465,-0.7296468648868061
4466,-0.7372362163953323
4467,-0.9823722701207284
4468,-1.0081760652497178
4469,-0.9725061131596444
4470,-0.9079966253371717
4471,-0.8844696356607405
4472,-0.833620980553615
4473,-0.7319236703393639
4474,-0.6841107558356488
4475,-0.8138886666314469
4476,-0.9664346319528235
4477,-0.973265048310497
4478,-0.7820133902956369
4479,-0.6575480255558072
4480,-0.5968332134875975
4481,-0.6044225649961238
4482,-0.5254933093074513
4483,-0.5406720123245037
4484,-0.8351388508553202
4485,-0.9945152325343706
4486,-1.0324619900770016
4487,-1.053712174300875
4488,-1.0643372664128117
4489,-1.013488611305686
4490,-0.9664346319528235
4491,-0.8852285708115932
4492,-0.8245137587433835
4493,-1.0779980991281586
4494,-1.16527564147621
4495,-1.1470611978557472
4496,-1.0924178669943585
4497,-1.0779980991281586
4498,-1.0468817579432015
4499,-0.9740239834613498
4500,-0.8973715332252351
4501,-0.8821928302081827
4502,-1.1083555051622633
4503,-1.1561684196659787
4504,-1.1576862899676839
4505,-1.0817927748824219
4506,-1.0939357372960636
4507,-1.071167682770485
4508,-0.9945152325343706
4509,-0.9246931986559294
4510,-0.8928179223201194
4511,-1.127328883933579
4512,-1.1865258257000835
4513,-1.173623928135589
4514,-1.1167037918216425
4515,-1.1167037918216425
4516,-1.075721293675601
4517,-1.0415692118872328
4518,-0.8973715332252351
4519,-0.9967920379869283
4520,-1.1349182354421052
4521,-1.1447843924031893
4522,-1.1121501809165266
4523,-1.1121501809165266
4524,-1.075721293675601
4525,-1.0127296761548337
4526,-0.9459433828798028
4527,-1.1409897166489262
4528,-1.2017045287171357
4529,-1.0635783312619589
4530,-1.0704087476196325
4531,-1.0810338397315693
4532,-1.0263905088701806
4533,-0.9656756968019707
4534,-0.8639783865877197
4535,-0.7721472333345527
4536,-0.6362978413319338
4537,-0.773665103636258
4538,-1.007417130098865
4539,-1.0491585633957592
4540,-1.0066581949480125
4541,-0.977818659215613
4542,-0.9474612531815082
4543,-0.8943357926218246
4544,-0.8207190829891204
4545,-0.7744240387871105
4546,-0.9398719016729817
4547,-1.0446049524906431
4548,-1.0704087476196325
4549,-1.0013456488920442
4550,-1.0081760652497178
4551,-0.9626399561985606
4552,-0.9284878744101925
4553,-0.8617015811351619
4554,-0.9269700041084873
4555,-1.0446049524906431
4556,-1.1022840239554428
4557,-1.0499174985466118
4558,-1.0438460173397908
4559,-1.0180422222108017
4560,-0.9770597240647603
4561,-0.9072376901863191
4562,-0.8639783865877197
4563,-1.031703054926149
4564,-1.1349182354421052
4565,-1.1576862899676839
4566,-1.1227752730284632
4567,-1.0977304130503267
4568,-1.0742034233738957
4569,-1.0066581949480125
4570,-0.941389771974687
4571,-0.9148270416948453
4572,-1.0992482833520323
4573,-1.1850079553983783
4574,-1.199427723264578
4575,-1.1402307814980737
4576,-1.129605689386137
4577,-1.0939357372960636
4578,-1.0332209252278541
4579,-0.9292468095610452
4580,-0.8844696356607405
4581,-1.0423281470380856
4582,-1.0962125427486216
4583,-1.1379539760455157
4584,-1.031703054926149
4585,-1.0332209252278541
4586,-1.0127296761548337
4587,-0.9527737992374764
4588,-0.8958536629235299
4589,-0.8146476017822994
4590,-0.9300057447118978
4591,-1.0271494440210334
4592,-0.9785775943664654
4593,-0.9747829186122025
4594,-0.9421487071255397
4595,-0.8882643114150036
4596,-0.8404513969112886
4597,-0.7713882981837001
4598,-0.6681731176677438
4599,-0.871567738096246
4600,-0.9664346319528235
4601,-0.999068843439486
4602,-0.9512559289357712
4603,-0.9368361610695712
4604,-0.9284878744101925
4605,-0.8617015811351619
4606,-0.7903616769550157
4607,-0.735718346093627
4608,-0.6962537182492908
4609,-0.9140681065439928
4610,-0.9785775943664654
4611,-0.9702293077070865
4612,-0.9072376901863191
4613,-0.865496256889425
4614,-0.8131297314805942
4615,-0.7660757521277318
4616,-0.6643784419134807
4617,-0.5604043262466717
4618,-0.6621016364609229
4619,-0.8419692672129938
4620,-0.8852285708115932
4621,-0.8184422775365626
4622,-0.7683525575802896
4623,-0.7159860321714588
4624,-0.6104940462029447
4625,-0.4647784972392417
4626,-0.39799220396421114
4627,-0.5604043262466717
4628,-0.6787982097796805
4629,-0.7190217727748693
4630,-0.5649579371517875
4631,-0.4002690094167689
4632,-0.38129563064545346
4633,-0.3615633167232853
4634,-0.3296880403874753
4635,-0.3046431804093388
4636,-0.48602868146311506
4637,-0.665896312215186
4638,-0.6992894588527012
4639,-0.6514765443489862
4640,-0.6051815001469764
4641,-0.6180833977114709
4642,-0.587725991677366
4643,-0.4754035893511784
4644,-0.3532150300639065
4645,-0.45794808088156813
4646,-0.6894233018916172
4647,-0.6962537182492908
4648,-0.6507176091981336
4649,-0.5884849268282186
4650,-0.5505381692855876
4651,-0.46250169178668377
4652,-0.33272378099088573
4653,-0.23937475743601347
4654,-0.3592865112707274
4655,-0.5816545104705452
4656,-0.6180833977114709
4657,-0.5588864559449666
4658,-0.5148682171955146
4659,-0.5110735414412514
4660,-0.4268317396966106
4661,-0.32741123493491736
4662,-0.2257139247206663
4663,-0.47692145965288363
4664,-0.5755830292637241
4665,-0.539913077173651
4666,-0.48299294085970457
4667,-0.5224575687040407
4668,-0.5133503468938093
4669,-0.45187659967474714
4670,-0.318304013124686
4671,-0.1976333241391193
4672,-0.4655374323900943
4673,-0.583931315923103
4674,-0.5793777050179874
4675,-0.5702704832077559
4676,-0.5960742783367449
4677,-0.5778598347162821
4678,-0.5050020602344305
4679,-0.34866141915879073
4680,-0.34866141915879073
4681,-0.5641990020009349
4682,-0.6454050631421653
4683,-0.67576246917627
4684,-0.6932179776458802
4685,-0.7471023733564163
4686,-0.7721472333345527
4687,-0.7190217727748693
4688,-0.6772803394779753
4689,-0.7030841346069643
4690,-0.9945152325343706
4691,-0.9383540313712765
4692,-0.909514495638877
4693,-0.8882643114150036
4694,-0.9208985229016664
4695,-0.8829517653590353
4696,-0.8260316290450888
4697,-0.735718346093627
4698,-0.7387540866970375
4699,-0.9975509731377807
4700,-1.0499174985466118
4701,-0.9960331028360758
4702,-0.8632194514368672
4703,-0.9140681065439928
4704,-0.8950947277726773
4705,-0.8313441751010572
4706,-0.7266111242833956
4707,-0.9338004204661607
4708,-1.0984893482011795
4709,-1.0764802288264537
4710,-1.0043813894954545
4711,-0.9914794919309601
4712,-0.9656756968019707
4713,-0.9133091713931402
4714,-0.7888438066533104
4715,-0.7729061684854054
4716,-1.013488611305686
4717,-1.1182216621233476
4718,-1.1068376348605584
4719,-1.0620604609602537
4720,-1.0506764336974646
4721,-0.9854080107241389
4722,-0.9284878744101925
4723,-0.8396924617604359
4724,-0.9345593556170135
4725,-1.1349182354421052
4726,-1.1622399008727997
4727,-1.0620604609602537
4728,-0.999068843439486
4729,-1.058265785205991
4730,-1.0005867137411917
4731,-0.8973715332252351
4732,-0.8207190829891204
4733,-0.9998277785903388
4734,-1.1022840239554428
4735,-1.0514353688483171
4736,-1.0294262494735908
4737,-1.0233547682667703
4738,-1.0051403246463073
4739,-0.9558095398408868
4740,-0.8814338950573302
4741,-0.9330414853153082
4742,-1.1387129111963683
4743,-1.149338003308305
4744,-1.1167037918216425
4745,-1.0825517100332744
4746,-1.0499174985466118
4747,-0.9808543998190234
4748,-0.9406308368238344
4749,-0.8738445435488038
4750,-1.1432665221014842
4751,-1.1872847608509358
4752,-1.1242931433301684
4753,-1.0294262494735908
4754,-0.9694703725562339
4755,-0.925452133806782
4756,-0.9011662089794982
4757,-0.8738445435488038
4758,-0.8958536629235299
4759,-1.1121501809165266
4760,-1.1409897166489262
4761,-1.1250520784810212
4762,-1.1204984675759053
4763,-1.1242931433301684
4764,-1.067373007016222
4765,-0.9702293077070865
4766,-0.9186217174491083
4767,-0.9785775943664654
4768,-1.1705881875321784
4769,-1.1311235596878422
4770,-1.0613015258094012
4771,-1.0658551367145168
4772,-1.047640693094054
4773,-1.0347387955295595
4774,-0.9747829186122025
4775,-0.8708088029453934
4776,-0.9998277785903388
4777,-1.1705881875321784
4778,-1.1903205014543465
4779,-1.0840695803349798
4780,-1.0423281470380856
4781,-0.9967920379869283
4782,-0.957327410142592
4783,-0.8806749599064774
4784,-0.8867464411132984
4785,-1.0468817579432015
4786,-1.0309441197752964
4787,-1.011211805853128
4788,-0.995274167685223
4789,-0.9907205567801074
4790,-0.9307646798627505
4791,-0.8950947277726773
4792,-0.7994688987652471
4793,-0.9208985229016664
4794,-1.1189805972742002
4795,-1.1387129111963683
4796,-1.1022840239554428
4797,-1.0787570342790114
4798,-1.047640693094054
4799,-0.9793365295173182
4800,-0.845763942967257
4801,-0.7197807079257219
4802,-0.8746034786996565
4803,-1.0225958331159177
4804,-1.0734444882230434
4805,-0.9929973622326653
4806,-0.9846490755732864
4807,-0.9504969937849184
4808,-0.9300057447118978
4809,-0.8123707963297416
4810,-0.6825928855339436
4811,-0.9019251441303507
4812,-0.973265048310497
4813,-0.9861669458749915
4814,-0.95960421559515
4815,-0.9391129665221292
4816,-0.9087555604880244
4817,-0.8533532944757831
4818,-0.7941563527092788
4819,-0.9087555604880244
4820,-1.0271494440210334
4821,-1.0461228227923487
4822,-0.9808543998190234
4823,-1.0089350004005704
4824,-0.9580863452934446
4825,-0.8905411168675614
4826,-0.8169244072348574
4827,-0.7334415406410691
4828,-0.8844696356607405
4829,-0.9785775943664654
4830,-0.9967920379869283
4831,-0.9482201883323607
4832,-0.9580863452934446
4833,-0.9451844477289502
4834,-0.8829517653590353
4835,-0.8472818132689621
4836,-0.7660757521277318
4837,-0.8548711647774884
4838,-0.9945152325343706
4839,-1.0681319421670747
4840,-1.0301851846244436
4841,-1.0286673143227385
4842,-0.9892026864784021
4843,-0.9474612531815082
4844,-0.9208985229016664
4845,-0.8374156563078781
4846,-0.8396924617604359
4847,-1.0347387955295595
4848,-1.0506764336974646
4849,-1.0021045840428968
4850,-1.0150064816073912
4851,-1.0210779628142124
4852,-0.9725061131596444
4853,-0.8518354241740779
4854,-0.7182628376240168
4855,-0.8996483386777929
4856,-0.9945152325343706
4857,-0.9960331028360758
4858,-0.9102734307897297
4859,-0.8897821817167089
4860,-0.8419692672129938
4861,-0.763798946675174
4862,-0.713709226718901
4863,-0.6233959437674392
4864,-0.8009867690669523
4865,-0.9436665774272449
4866,-0.9649167616511183
4867,-0.9186217174491083
4868,-0.9079966253371717
