79
84
81
83
81
81
82
84
80
83
79
84
83
81
84
80
86
83
86
83
84
83
84
82
79
80
78
78
68
106
-29
-70
-81
-84
-87
-87
-83
-86
-86
-88
-83
-87
-85
-85
-87
-84
-85
-82
-86
-84
-86
-82
-84
-85
-87
-84
-84
-84
-84
-87
-83
-84
-82
-85
-82
-84
-78
-81
-81
-82
-81
-80
-79
-80
-81
-81
-79
-78
-80
-78
-82
-74
-79
-76
-78
-77
-76
-74
-75
-72
-73
-66
-64
-95
41
78
86
90
90
91
90
89
91
88
86
86
85
88
87
84
85
79
86
80
83
78
79
78
79
77
79
76
78
77
79
77
78
73
82
76
76
76
74
77
78
77
78
75
77
77
78
77
76
74
79
76
76
76
74
76
77
75
73
70
71
68
75
79
-34
-85
-84
-93
-90
-92
-91
-91
-88
-91
-92
-93
-91
-91
-90
-93
-89
-95
-87
-91
-90
-91
-90
-91
-88
-90
-89
-90
-89
-88
-88
-89
-87
-89
-83
-86
-85
-85
-85
-83
-84
-82
-85
-83
-86
-79
-84
-83
-83
-83
-81
-81
-81
-82
-82
-80
-77
-76
-77
-74
-76
-68
-66
-105
37
79
88
94
92
93
93
93
95
96
95
94
90
95
91
92
87
88
85
89
84
85
82
81
81
82
81
80
77
80
78
79
76
78
74
79
76
76
75
72
75
74
74
72
71
75
77
74
75
76
75
77
77
76
77
74
77
76
77
70
71
65
80
69
-36
-82
-88
-89
-90
-93
-90
-94
-89
-91
-92
-93
-94
-91
-91
-91
-91
-91
-91
-89
-91
-91
-91
-91
-89
-89
-90
-89
-93
-85
-90
-87
-87
-86
-89
-82
-86
-84
-85
-84
-81
-82
-84
-81
-85
-79
-84
-80
-83
-82
-82
-78
-82
-79
-81
-81
-80
-78
-79
-77
-79
-73
-70
-101
21
67
70
78
71
73
69
66
67
66
63
65
63
68
64
68
66
70
69
72
72
72
73
72
74
74
72
74
71
77
75
73
73
72
75
71
71
71
68
72
70
70
68
66
71
69
69
66
68
66
69
68
68
65
67
67
67
65
65
60
64
57
66
56
-47
-87
-96
-101
-99
-104
-96
-104
-99
-101
-100
-97
-98
-97
-98
-100
-97
-97
-97
-96
-99
-93
-97
-93
-97
-95
-94
-91
-92
-91
-93
-90
-91
-90
-92
-92
-93
-88
-92
-92
-92
-92
-91
-92
-91
-93
-93
-92
-90
-95
-90
-97
-89
-93
-92
-93
-92
-91
-88
-88
-88
-87
-83
-104
25
66
71
75
75
73
71
70
71
70
71
69
66
69
70
68
67
68
66
70
67
66
67
64
69
66
67
66
64
68
65
66
65
63
65
64
62
62
59
64
62
64
60
62
61
65
64
64
61
64
64
65
60
66
59
66
61
63
59
59
58
56
58
71
-42
-91
-104
-103
-107
-107
-108
-105
-108
-107
-108
-105
-106
-104
-106
-105
-107
-101
-105
-102
-104
-104
-102
-102
-102
-103
-104
-100
-101
-102
-101
-104
-99
-100
-99
-103
-100
-104
-97
-101
-100
-101
-102
-99
-100
-100
-101
-104
-99
-102
-103
-101
-105
-99
-101
-99
-102
-100
-99
-95
-97
-93
-100
-98
-14
48
58
60
60
61
60
55
57
47
55
49
50
49
49
49
48
47
46
44
49
48
45
47
41
50
44
46
44
43
45
46
45
45
44
47
45
43
47
41
50
45
50
46
50
50
50
50
50
50
50
50
50
51
47
49
47
48
45
43
41
43
36
70
-51
-109
-111
-117
-119
-120
-121
-120
-119
-121
-120
-121
-119
-119
-122
-119
-124
-116
-120
-119
-120
-120
-118
-119
-118
-118
-118
-118
-114
-116
-114
-118
-112
-114
-113
-112
-118
-109
-114
-109
-114
-112
-112
-110
-112
-112
-113
-111
-112
-112
-112
-116
-111
-113
-111
-115
-113
-112
-110
-109
-110
-105
-111
-107
-16
44
48
58
54
56
54
51
53
52
50
50
49
50
51
49
51
48
52
52
50
55
47
56
52
54
51
53
54
54
53
51
54
53
56
53
55
52
58
56
56
58
58
60
58
61
58
65
64
65
67
62
71
66
69
66
66
68
68
67
65
64
64
83
-19
-76
-88
-87
-86
-88
-85
-88
-82
-82
-83
-82
-81
-77
-76
-75
-77
-72
-70
-71
-68
-71
-62
-65
-62
-61
-63
-54
-56
-55
-53
-52
-47
-48
-44
-47
-41
-40
-39
-37
-37
-32
-31
-28
-29
-26
-24
-21
-20
-21
-16
-15
-10
-9
-7
-6
-1
2
2
10
8
20
20
-8
128
165
183
183
187
188
192
196
199
201
204
205
210
213
214
220
217
229
225
231
233
235
241
243
247
250
251
257
259
262
265
264
274
273
278
279
283
287
293
295
300
305
307
313
315
320
321
327
332
336
338
344
342
355
355
361
363
367
373
374
378
379
386
396
309
252
248
245
255
257
263
265
272
274
285
286
293
296
303
309
315
319
325
327
339
341
350
352
359
361
374
375
382
386
392
398
405
410
415
422
423
435
439
448
454
459
465
474
481
485
493
500
505
514
522
527
533
540
542
551
555
559
563
562
563
559
600
499
170
74
48
39
31
29
24
25
18
22
15
13
5
2
2
1
-1
-3
-8
-6
-10
-11
-17
-16
-26
-21
-29
-32
-38
-39
-43
-48
-52
-57
-58
-63
-63
-70
-72
-76
-75
-80
-82
-87
-88
-92
-92
-96
-101
-101
-107
-106
-111
-111
-117
-118
-124
-125
-132
-132
-137
-141
-144
-152
-151
-156
-158
-163
-166
-169
-170
-176
-176
-185
-183
-189
-193
-195
-203
-197
-204
-203
-207
-208
-210
-210
-212
-215
-216
-219
-220
-222
-223
-229
-225
-229
-227
-230
-232
-227
-229
-227
-231
-229
-230
-230
-236
-237
-240
-237
-238
-243
-242
-252
-245
-253
-252
-254
-254
-249
-252
-251
-251
-248
-245
-242
-245
-243
-243
-235
-236
-239
-237
-241
-235
-239
-239
-242
-238
-238
-236
-236
-235
-228
-171
-86
-176
-227
-223
-213
-215
-219
-222
-223
-221
-227
-224
-228
-220
-221
-221
-219
-225
-209
-209
-202
-201
-200
-194
-191
-184
-183
-179
-174
-167
-166
-156
-149
-140
-133
-138
-137
-142
-146
-155
-162
-172
-173
-174
-176
-173
-180
-168
-169
-164
-161
-162
-152
-154
-153
-152
-141
-140
-146
-148
-153
-149
-152
-146
-146
-145
-140
-143
-142
-146
-144
-150
-150
-150
-146
-141
-141
-130
-133
-129
-129
-127
-124
-120
-115
-113
-110
-109
-107
-107
-101
-104
-113
-105
-103
-97
-96
-87
-88
-82
-50
39
154
32
-98
-78
-60
-55
-68
-62
-69
-72
-75
-70
-62
-63
-58
-58
-51
-50
-48
-47
-49
-43
-43
-35
-37
-33
-33
-27
-12
-2
5
13
19
26
36
35
36
22
5
-5
-20
-19
-31
-38
-51
-52
-47
-43
-43
-43
-45
-38
-34
-26
-19
-21
-15
-19
-18
-23
-28
-30
-29
-31
-29
-33
-30
-39
-37
-31
-29
-23
-23
-21
-20
-17
-19
-24
-32
-28
-29
-21
-29
-25
-28
-28
-26
-21
-23
-20
-24
-20
-27
-25
-25
-23
-24
-15
-15
-17
-20
-20
-21
-24
-23
-24
-22
-18
-26
-21
8
102
251
175
-37
-48
-7
4
3
0
2
-1
2
0
0
-1
-4
-5
-6
-6
-13
-20
-24
-14
-5
5
9
19
26
41
48
57
60
75
77
81
74
62
54
46
33
24
10
10
-4
-6
-4
-4
-2
-4
-6
-4
-5
-6
-8
-3
3
-1
8
8
9
3
2
3
4
-1
-2
-9
-6
-19
-26
-33
-26
-21
-11
-13
-14
-13
-7
1
3
0
-1
-4
-1
-4
-6
-14
-30
-18
-15
-10
-13
-12
-9
-11
-11
-9
-11
-1
-4
-3
-8
-14
-19
-19
-15
-10
-15
-8
-15
-11
-11
-12
-8
-6
-4
-3
-3
1
-5
-5
0
0
-5
8
61
181
249
83
-34
-10
7
-2
-2
-7
-6
-15
-19
-6
0
3
3
2
7
8
10
12
9
19
18
15
12
16
23
34
43
55
59
70
72
74
77
75
80
66
54
33
18
7
5
6
1
4
1
5
1
0
-2
-1
-2
-2
-2
2
10
9
4
-4
12
13
14
14
12
14
8
7
-2
-1
-4
-6
-6
-12
-6
-9
-4
-16
-17
-2
0
6
23
78
203
198
14
-38
-2
3
0
-5
-12
-7
-20
-16
-10
-8
-1
3
7
9
18
19
22
24
20
34
37
38
41
44
50
50
59
66
77
79
77
78
67
60
42
29
21
15
15
9
7
7
5
4
-1
4
7
5
9
4
8
10
6
5
-2
2
-1
-2
-1
-3
-3
-12
0
6
-1
3
-3
-8
-8
-8
-4
-7
-8
-11
-9
-6
-12
-9
-6
-12
-10
-1
4
0
-4
-7
-10
-8
-9
-4
-11
-13
-13
-17
-15
-18
-19
-22
-21
-20
-13
11
76
212
234
7
-34
8
12
7
1
-6
-10
-21
-25
-25
-27
-17
-10
-8
-6
-3
0
-2
7
13
17
19
22
25
24
27
30
44
53
67
74
75
77
69
67
53
42
29
16
12
5
-1
-8
-8
-6
-10
-4
-3
-1
-8
-8
-5
-8
-2
-7
-6
-7
-4
-3
-1
0
2
4
0
-1
-3
0
3
2
-10
-14
-12
-12
-10
-17
-20
-24
-24
-23
-25
-21
-22
-13
-13
-15
-10
-18
-9
-8
0
-1
-6
-7
-12
-16
-18
-18
-21
-18
-14
-14
6
66
201
260
51
-50
-9
1
-4
-9
-17
-20
-25
-25
-26
-23
-18
-17
-14
-8
-2
-5
-7
0
4
12
11
13
20
24
32
34
38
53
59
67
74
81
80
60
43
27
23
11
-7
-9
-19
-17
-22
-27
-26
-25
-22
-16
-13
-4
-5
-4
1
-9
4
1
-2
-2
-5
-3
-8
-12
-13
-16
-17
-26
-37
-33
-32
-23
-19
-18
-11
-13
-8
-9
-8
-7
-10
-13
-15
-15
-13
-11
-20
-25
-29
-23
-24
-28
-21
-21
-15
1
58
178
233
57
-39
-14
-2
-10
-15
-26
-25
-24
-25
-21
-24
-22
-20
-16
-10
-5
-7
1
1
14
7
12
13
16
20
22
23
29
41
55
62
67
71
62
60
44
32
15
4
-5
-9
-14
-17
-24
-25
-28
-26
-24
-20
-10
-10
-4
-5
0
-4
1
-6
-8
-10
-11
-10
-12
-14
-20
-21
-23
-26
-32
-29
-38
-29
-32
-33
-34
-28
-21
-19
-17
-19
-12
-19
-16
-21
-21
-21
-22
-23
-24
-26
-24
-31
-35
-32
-38
-29
-36
-35
-27
-25
-12
-11
-6
5
53
158
219
56
-53
-17
-12
-5
-17
-28
-28
-24
-27
-30
-34
-32
-31
-36
-33
-29
-14
-12
-6
-4
-4
2
2
7
5
18
30
37
42
45
50
56
56
47
43
29
21
11
9
2
-5
-6
-12
-16
-19
-21
-26
-23
-22
-21
-19
-19
-19
-22
-18
-21
-13
-19
-13
-8
-5
-10
-13
-19
-27
-32
-34
-31
-31
-24
-37
-32
-31
-27
-27
-24
-25
-22
-22
-16
-15
-8
-19
-23
-29
-35
-35
-37
-38
-39
-52
-43
-5
99
239
79
-70
-23
-1
-3
-7
-5
-8
-13
-17
-27
-26
-37
-40
-45
-40
-34
-27
-27
-18
-14
-4
5
13
22
31
31
42
40
46
44
41
42
48
41
35
19
12
0
-5
-14
-16
-14
-11
-11
-8
-10
-6
-12
-12
-18
-21
-28
-25
-29
-25
-27
-28
-27
-27
-28
-24
-29
-19
-22
-18
-21
-23
-21
-22
-25
-22
-24
-26
-32
-27
-25
-26
-27
-28
-27
2
78
210
150
-36
-49
-15
-18
-13
-28
-32
-38
-39
-29
-22
-21
-19
-21
-12
-11
-8
-8
-4
-3
-3
-9
-8
-9
-2
11
23
31
43
55
71
75
75
68
55
52
38
31
7
-12
-17
-20
-24
-28
-33
-33
-34
-33
-33
-30
-34
-23
-30
-18
-15
-12
-8
-8
-7
-7
-13
-9
-15
-14
-17
-19
-23
-15
-20
-15
-15
-20
-27
-28
-32
-35
-37
-32
-39
-37
-43
-33
-30
-19
-21
-21
-23
-21
-13
-7
-8
-10
-19
-11
-21
-20
-29
-33
-35
-36
-37
-31
-34
-22
-3
69
192
254
-5
-60
-8
1
-1
-7
-11
-15
-19
-22
-26
-22
-30
-27
-29
-30
-30
-29
-23
-6
2
14
21
29
29
36
33
48
46
50
52
55
56
51
47
39
26
19
6
2
-4
-5
0
4
3
-1
-4
-6
-8
-13
-16
-23
-29
-20
-20
-16
-14
-16
-8
-10
-5
-4
-3
1
1
-5
-8
-14
-15
-37
-41
-37
-34
-33
-30
-32
-27
-31
-23
-24
-18
-17
-15
-10
-9
-16
-20
-25
-22
-18
-19
-20
-23
-24
-26
-24
-28
-29
-30
-22
-26
-27
-34
-35
-30
-21
-16
-16
-13
-17
-11
9
112
223
140
-51
-45
-20
-19
-26
-37
-45
-44
-33
-22
-19
-20
-13
-21
-11
-17
-14
-15
-13
-9
-8
-6
1
3
14
10
7
11
17
42
50
56
58
57
57
47
32
22
6
2
-7
-11
-15
-16
-22
-24
-20
-16
-20
-15
-21
-21
-21
-19
-16
-16
-18
-19
-21
-20
-18
-19
-19
-19
-24
-25
-20
-20
-27
-19
24
139
208
59
-35
-9
-6
-11
-18
-20
-18
-12
-13
-11
-18
-22
-19
-23
-27
-29
-32
-28
-21
-13
-8
1
5
14
21
29
37
44
57
64
69
68
60
50
34
17
-1
-14
-20
-23
-22
-20
-21
-23
-24
-26
-26
-26
-26
-21
-21
-19
-16
-15
-20
-14
-15
-17
-18
-24
-24
-21
-22
-20
-29
-22
-28
-24
-25
-24
-22
-20
-22
-19
-20
-25
-25
-26
-29
-30
-37
-28
-34
-34
-32
-33
-27
-21
-24
-19
-3
68
204
206
-19
-65
-29
-18
-20
-25
-32
-34
-32
-28
-20
-17
-16
-15
-16
-14
-11
-13
-5
-5
-4
-4
-2
7
14
17
23
25
37
41
50
49
55
56
57
51
41
28
23
17
3
-3
-6
-8
-12
-12
-19
-14
-21
-12
-20
-17
-21
-17
-13
-9
-5
0
-6
-2
-6
-3
-1
-7
-6
-8
-10
-14
-16
-16
-18
-21
-22
-25
-15
-17
-15
-23
-27
-20
-15
-18
-16
-22
-16
-24
-22
-22
-22
-16
-14
-18
-14
5
75
210
229
-12
-64
-5
-3
-3
-7
-11
-8
-7
-9
-13
-18
-15
-17
-20
-16
-25
-21
-25
-16
-7
0
4
9
16
24
29
40
50
53
59
54
60
52
46
32
32
23
19
16
10
5
3
2
-1
0
-8
-10
-21
-24
-25
-19
-17
-14
-12
-13
-10
-12
-8
-8
-5
-10
-9
-14
-20
-30
-30
-18
-15
-14
-10
27
114
241
133
-22
0
5
3
-4
-7
-9
-10
-14
-18
-28
-31
-25
-26
-23
-25
-16
-10
-6
-3
-5
10
13
21
27
33
43
51
62
58
60
59
58
47
36
22
16
7
-2
-2
-5
-6
-13
-17
-21
-17
-17
-26
-22
-28
-16
-24
-23
-22
-24
-14
-13
-8
-8
-5
-2
-2
-6
-10
-7
-14
-9
-16
-23
-19
-21
-23
-26
-23
-24
-24
-29
-25
-25
-17
-15
-15
-13
-12
-6
-8
-9
-20
-20
-19
-17
-17
-18
-15
-22
-18
-22
-23
-19
-17
-17
-5
38
142
235
61
-71
-19
6
5
-6
-16
-17
-14
-18
-19
-21
-18
-17
-14
-15
-4
-6
1
1
8
14
11
14
17
20
21
24
30
36
33
43
42
57
52
52
44
35
22
14
12
10
4
3
-2
-5
-4
-9
-4
-9
-5
-7
-7
-6
3
-3
-4
-9
-13
-12
-13
-22
-30
-30
-17
-22
-21
-19
-20
-22
-22
-18
-24
-29
-28
-29
-28
-27
-34
-33
-33
-30
-29
-23
-27
-20
-19
-18
-22
-19
-21
-28
-29
-31
-38
-32
-38
-40
-51
-33
-28
-26
-22
-20
-20
-22
-19
-16
-17
-19
-14
-17
-19
-27
-25
-46
-41
-37
-32
-30
-26
-24
-19
-19
-12
-16
-11
-10
-12
-15
-9
-13
-18
-30
-2
123
230
97
-68
-38
-14
-9
-12
-9
-8
-5
-7
0
-5
-5
-10
-13
-23
-26
-32
-31
-27
-20
-14
-13
-16
-1
-4
14
14
26
24
37
45
49
51
52
