-1.1636260815637656
-1.100635536489836
-1.04523421371397
-1.0034934910746192
-1.1537600925762825
-1.2296523155569208
-1.2524199824511122
-1.1992954263646656
-1.1977775819050527
-1.1901883596069889
-1.1355459590609296
-1.0884927808129339
-1.0148773245217149
-1.218268482109825
-1.2691162715068525
-1.2516610602213056
-1.2167506376502122
-1.2106792598117613
-1.2190274043396314
-1.1530011703464762
-1.0953230808811913
-1.0558591249312594
-1.2152327931905995
-1.2911250161712375
-1.2683573492770461
-1.2493842935318866
-1.256214593600144
-1.2235809377184697
-1.1879115929175696
-1.1234032033840273
-1.0922873919619658
-1.2524199824511122
-1.3328657388105885
-1.3184462164442672
-1.322240827593299
-1.2994731606991077
-1.2698751937366588
-1.228134471097308
-1.1734920705512486
-1.1279567367628656
-1.258491360289563
-1.3708118503009075
-1.348044183406716
-1.3176872942144608
-1.3063034607673651
-1.262285971438595
-1.2273755488675016
-1.156795781495508
-1.1294745812224785
-1.266080582587627
-1.3427317277980715
-1.3321068165807821
-1.2865714827923993
-1.2903660939414312
-1.2827768716433674
-1.2448307601530484
-1.1613493148743463
-1.1734920705512486
-1.326035438742331
-1.349562027866329
-1.3184462164442672
-1.3267943609721373
-1.2782233382645292
-1.256214593600144
-1.2038489597435038
-1.1689385371724101
-1.1970186596752463
-1.326035438742331
-1.3525977167855543
-1.3343835832702013
-1.335901427729814
-1.322240827593299
-1.2668395048174335
-1.2448307601530484
-1.1856348262281506
-1.2546967491405312
-1.351838794555748
-1.3943384394249052
-1.3389371166490396
-1.3283122054317502
-1.301749927388527
-1.2683573492770461
-1.218268482109825
-1.1590725481849273
-1.246348604612661
-1.335901427729814
-1.3715707725307138
-1.3305889721211694
-1.3283122054317502
-1.3093391496865907
-1.2569735158299504
-1.2190274043396314
-1.1552779370358954
-1.1750099150108613
-1.3161694497548482
-1.377642150369165
-1.3283122054317502
-1.3146516052952353
-1.2896071717116249
-1.282017949413561
-1.198536504134859
-1.1750099150108613
-1.110501525477319
-1.2607681269789823
-1.3116159163760097
-1.3321068165807821
-1.2850536383327864
-1.2888482494818183
-1.2615270492087887
-1.2175095598800185
-1.1803223706195058
-1.098358769800417
-1.28429471610298
-1.31996406090388
-1.3176872942144608
-1.3116159163760097
-1.263803815898208
-1.2190274043396314
-1.1848759039983443
-1.1454119480484124
-1.0444752914841637
-1.1681796149426038
-1.285812560562593
-1.3214819053634927
-1.27594657157511
-1.27594657157511
-1.2486253713020803
-1.2076435708925357
-1.1492065591974443
-1.0680018806081617
-1.0399217581053255
-1.1772866817002805
-1.2577324380597568
-1.282017949413561
-1.2493842935318866
-1.2448307601530484
-1.2197863265694378
-1.1719742260916357
-1.0839392474340956
-1.0414396025649382
-1.0156362467515214
-1.19625973744544
-1.2471075268424674
-1.2250987821780823
-1.2167506376502122
-1.2046078819733101
-1.1666617704829911
-1.1203675144648018
-1.0421985247947447
-0.9640295351246875
-1.0680018806081617
-1.224339859948276
-1.2258577044078889
-1.2076435708925357
-1.1848759039983443
-1.1719742260916357
-1.136304881290736
-1.0604126583100977
-1.008805946683264
-1.16059039264454
-1.2478664490722737
-1.2797411827241418
-1.1894294373771825
-1.1628671593339592
-1.144653025818606
-1.1218853589244147
-1.0459931359437766
-0.9784490574910086
-1.1772866817002805
-1.2835357938731737
-1.2918839384010439
-1.2258577044078889
-1.234205848935759
-1.2015721930540846
-1.1590725481849273
-1.1165729033157699
-1.0793857140552574
-1.250143215761693
-1.3275532832019439
-1.3374192721894267
-1.3070623829971715
-1.300232082928914
-1.2782233382645292
-1.2175095598800185
-1.162108237104153
-1.1203675144648018
-1.3389371166490396
-1.3981330505739373
-1.3541155612451672
-1.3374192721894267
-1.3275532832019439
-1.266080582587627
-1.2410361490040165
-1.1666617704829911
-1.2865714827923993
-1.3988919728037437
-1.413311495170065
-1.3768832281393586
-1.3730886169903267
-1.3450084944874905
-1.2805001049539482
-1.2387593823145973
-1.2971963940096887
-1.4322845509152244
-1.441391617672901
-1.4125525729402584
-1.3913027505056799
-1.3966152061143244
-1.3548744834749735
-1.2805001049539482
-1.2455896823828547
-1.415588261859484
-1.4967929404487668
-1.5248730629516027
-1.4641592845670923
-1.4694717401757371
-1.4269720953065796
-1.39965089503355
-1.348044183406716
-1.361704783543231
-1.5248730629516027
-1.5704083967399856
-1.5544710299140516
-1.4990697071381858
-1.497551862678573
-1.4459451510517392
-1.411793650710452
-1.323758672052912
-1.4338023953748371
-1.5658548633611473
-1.5795154634976623
-1.5081767738958625
-1.51500707396412
-1.501346473827605
-1.4565700622690285
-1.403445506182582
-1.3844724504374224
-1.5119713850448944
-1.5734440856592111
-1.5734440856592111
-1.5347390519390858
-1.5089356961256688
-1.4656771290267052
-1.4178650285489032
-1.3343835832702013
-1.4778198847036073
-1.551435340994826
-1.5840689968765005
-1.5248730629516027
-1.5089356961256688
-1.4983107849083794
-1.4315256286854179
-1.3943384394249052
-1.3533566390153609
-1.5476407298457941
-1.577238696808243
-1.5757208523486304
-1.540810429777537
-1.5347390519390858
-1.475543118014188
-1.4436683843623201
-1.3685350836114885
-1.360186939083618
-1.5142481517343134
-1.561301329982309
-1.52335521849199
-1.5059000072064432
-1.4664360512565116
-1.4527754511199966
-1.4026865839527756
-1.349562027866329
-1.288089327252012
-1.4899626403805093
-1.5347390519390858
-1.4983107849083794
-1.4649182067968987
-1.4444273065921265
-1.4338023953748371
-1.3806778392883905
-1.3275532832019439
-1.365499394692263
-1.4709895846353498
-1.5127303072747007
-1.4406326954430946
-1.4687128179459306
-1.4360791620642563
-1.3844724504374224
-1.3283122054317502
-1.335901427729814
-1.4717485068651561
-1.4929983292997349
-1.4838912625420582
-1.473266351324769
-1.4467040732815455
-1.4186239507787095
-1.3746064614499394
-1.31996406090388
-1.3799189170585842
-1.4967929404487668
-1.525631985181409
-1.4831323403122518
-1.4846501847718647
-1.4808555736228328
-1.4520165288901903
-1.3632226280028437
-1.3442495722576842
-1.4049633506421946
-1.5036232405170242
-1.5294265963304412
-1.4565700622690285
-1.4489808399709647
-1.4300077842258052
-1.4140704173998713
-1.3465263389471034
-1.2888482494818183
-1.3321068165807821
-1.4664360512565116
-1.485409107001671
-1.4360791620642563
-1.4231774841575477
-1.4064811951018075
-1.3692940058412948
-1.3161694497548482
-1.2433129156934355
-1.3700529280711011
-1.453534373349803
-1.4368380842940627
-1.4125525729402584
-1.3814367615181968
-1.3685350836114885
-1.3229997498231054
-1.2835357938731737
-1.198536504134859
-1.3427317277980715
-1.411793650710452
-1.4467040732815455
-1.4049633506421946
-1.3821956837480032
-1.3632226280028437
-1.3381781944192332
-1.2675984270472398
-1.1757688372406676
-1.294160705090463
-1.411793650710452
-1.4482219177411584
-1.3981330505739373
-1.3662583169220692
-1.3533566390153609
-1.3154105275250416
-1.2471075268424674
-1.1932240485262144
-1.2448307601530484
-1.3806778392883905
-1.3913027505056799
-1.365499394692263
-1.3290711276615566
-1.3169283719846545
-1.2615270492087887
-1.1317513479118977
-1.0581358916206787
-1.0793857140552574
-1.2668395048174335
-1.3229997498231054
-1.2774644160347226
-1.2577324380597568
-1.234205848935759
-1.220545248799244
-1.1454119480484124
-1.1112604477071253
-1.24027722677421
-1.3389371166490396
-1.3313478943509758
-1.2827768716433674
-1.2805001049539482
-1.2425539934636292
-1.2008132708242782
-1.1340281146013167
-1.058894813850485
-1.2137149487309866
-1.297955316239495
-1.3169283719846545
-1.2805001049539482
-1.2782233382645292
-1.256214593600144
-1.2129560265011803
-1.1636260815637656
-1.108983681017706
-1.2455896823828547
-1.3412138833384586
-1.3609458613134247
-1.3116159163760097
-1.3009910051587206
-1.2865714827923993
-1.24027722677421
-1.1590725481849273
-1.1271978145330592
-1.2698751937366588
-1.3647404724624566
-1.3905438282758733
-1.3343835832702013
-1.3229997498231054
-1.2994731606991077
-1.2698751937366588
-1.2053668042031165
-1.1917062040666015
-1.3806778392883905
-1.4019276617229692
-1.3548744834749735
-1.3412138833384586
-1.3419728055682651
-1.2903660939414312
-1.260009204749176
-1.1734920705512486
-1.2698751937366588
-1.3935795171950989
-1.441391617672901
-1.3950973616547118
-1.3814367615181968
-1.3799189170585842
-1.3283122054317502
-1.2865714827923993
-1.2266166266376952
-1.3708118503009075
-1.48768587369109
-1.4929983292997349
-1.4489808399709647
-1.459605751188254
-1.409516884021033
-1.3799189170585842
-1.3154105275250416
-1.263803815898208
-1.4338023953748371
-1.5279087518708283
-1.539292585317924
-1.463400362337286
-1.4763020402439944
-1.4087579617912265
-1.4102758062508394
-1.3533566390153609
-1.459605751188254
-1.543087196466956
-1.5483996520756007
-1.5081767738958625
-1.497551862678573
-1.4808555736228328
-1.4209007174681287
-1.3556334057047799
-1.335901427729814
-1.5074178516660561
-1.5901403747149516
-1.596970674783209
-1.5461228853861815
-1.5248730629516027
-1.517283840653539
-1.463400362337286
-1.3988919728037437
-1.395856283884518
-1.5567477966034708
-1.5886225302553387
-1.5916582191745643
-1.5241141407217964
-1.5324622852496665
-1.5066589294362496
-1.463400362337286
-1.413311495170065
-1.4542932955796093
-1.5833100746466942
-1.5855868413361132
-1.5461228853861815
-1.5301855185602475
-1.491480484840122
-1.4482219177411584
-1.4224185619277414
-1.4057222728720011
-1.513489229504507
-1.5597834855226964
-1.4899626403805093
-1.477060962473801
-1.4611235956478668
-1.4368380842940627
-1.4171061063190968
-1.3374192721894267
-1.3685350836114885
-1.5301855185602475
-1.616702652758175
-1.5939349858639835
-1.525631985181409
-1.4580879067286412
-1.3730886169903267
-1.2349647711655654
-1.055100202701453
-0.9184942013363045
-0.9875561242486852
-0.963270612894881
-0.8592982674114069
-0.7317993328039349
-0.6058182426560758
-0.3697934291862913
0.01953367470438202
0.26694232162126214
0.3618076003470597
0.22671944344152395
0.12198817572824341
0.10984542005134133
0.2176123766838474
0.17511273181469006
0.14399692039262846
0.1735948873550773
0.16448782059740075
0.147032609311854
-0.17171472720682593
-0.32577593985752124
-0.4555516411544123
-0.4760425413591846
-0.5253724862965994
-0.552693686569629
-0.5693899756253694
-0.5997468648176246
-0.6111306982647204
-0.7333171772635477
-0.995145346546749
-1.1408584146695742
-1.1894294373771825
-1.186393748457957
-1.176527759470474
-1.1279567367628656
-1.1013944587196423
-1.0186719356707468
-0.9017979122805642
-0.9989399576957809
-1.0163951689813278
-1.0118416356024895
-0.9116639012680472
-0.8441198228152793
-0.6915764546241967
-0.5488990754205971
-0.3940789405400955
-0.2164911387654024
-0.04573363705896673
-0.24305341680862572
-0.28858875059700856
-0.19979484970966202
-0.01841243678593702
0.05292625281586277
0.04457810828799258
0.09239020876579457
0.1500682982310795
0.13185416471572636
-0.23166958336153
-0.4517570300053804
-0.5284081752158248
-0.4760425413591846
-0.5481401531907908
-0.5618007533273056
-0.572425664544595
-0.5534526087994355
-0.5883630313705289
-0.8228700003807006
-0.9959042687765555
-1.055100202701453
-0.95719923505643
-0.8577804229517941
-0.7742989776730922
-0.7006835213818733
-0.540550930892727
-0.35233821790074454
-0.3940789405400955
-0.492738830414925
-0.44720349662654213
-0.34399007337287435
-0.14742921585302174
0.015739063555350114
0.10149727552347114
0.08100637531869886
0.09087236430618181
-0.08671543746851129
-0.4418910410178975
-0.6111306982647204
-0.7613972997663838
-0.8145218558528304
-0.8972443789017259
-0.9776901352612023
-1.0118416356024895
-1.0004578021553938
-1.0816624807446764
-1.2304112377867271
-1.2827768716433674
-1.2258577044078889
-1.0884927808129339
-0.9913507353977171
-0.8304592226787644
-0.6824693878665202
-0.4843906858870548
-0.5367563197436951
-0.5352384752840823
-0.42291798527273794
-0.24457126126823847
-0.17399149389624508
-0.04193902590993482
0.11819356457921151
0.2768083106087451
0.4589496457622765
0.28136184398758335
0.24341573249726434
0.2016750098579134
0.22747836567133034
0.2449335769568771
0.1614521316781752
0.09694374214463286
0.03471211930050963
0.0028373856486416413
-0.37510588479493595
-0.546622308731178
-0.5967111758983992
-0.6111306982647204
-0.6574249542829096
-0.6627374098915543
-0.7006835213818733
-0.7454599329404498
-0.8061737113249602
-1.0361271469562936
-1.1287156589926721
-1.164385003793572
-1.1696974594022167
-1.1901883596069889
-1.1241621256138337
-1.0179130134409404
-0.9025568345103706
-1.0133594800621022
-1.0141184022919085
-0.8729588675479217
-0.6794336989472947
-0.5686310533955631
-0.4358196631794464
-0.24684802795765762
-0.12162586003960481
-0.07533160402141557
-0.22332143883365982
-0.21193760538656412
-0.11631340443096014
-0.06091208165509434
0.01194445240631821
0.08100637531869886
0.13716662032437105
0.2570763326337792
0.058997630654313814
-0.051805014897417775
-0.11403663774154099
-0.0700191484127709
-0.09354573753676872
-0.15501843815108554
-0.16412550490876213
-0.2521604835663023
-0.37207019587571044
-0.6536303431338777
-0.7826471222009624
-0.8334949115979899
-0.8562625784921813
-0.8441198228152793
-0.7947898778778645
-0.7113084325991627
-0.6445232763762011
-0.7052370547607116
-0.867646411939277
-0.8949676122123068
-0.8547447340325686
-0.8266646115297325
-0.8183164670018623
-0.7705043665240603
-0.7022013658414861
-0.7151030437481946
-0.8942086899825004
-0.9207709680257238
-0.8949676122123068
-0.8562625784921813
-0.8418430561258601
-0.8038969446355411
-0.7621562219961902
-0.6604606432021352
-0.8388073672066346
-0.9078692901190153
-0.931395879243013
-0.8911730010632749
-0.8957265344421131
-0.8570215007219878
-0.7864417333499943
-0.7211744215866456
-0.6619784876617479
-0.8092094002441858
-0.8987622233613387
-0.8881373121440493
-0.8524679673431494
-0.823628922610507
-0.7947898778778645
-0.7317993328039349
-0.6930942990838095
-0.6308626762396863
-0.817557544772056
-0.8592982674114069
-0.8410841338960537
-0.8023791001759283
-0.759879455306771
-0.7454599329404498
-0.6976478324626478
-0.6247912984012353
-0.7613972997663838
-0.8501912006537303
-0.8433609005854729
-0.7894774222692199
-0.7909952667288326
-0.7431831662510306
-0.6710855544194244
-0.6316215984694926
-0.5686310533955631
-0.775816822132705
-0.839566289436441
-0.8319770671383772
-0.7932720334182518
-0.7674686776048348
-0.7188976548972265
-0.6612195654319415
-0.6027825537368502
-0.5382741642033079
-0.7075138214501308
-0.8008612557163156
-0.8532268895729559
-0.7484956218596753
-0.7629151442259965
-0.7029602880712924
-0.6475589652954267
-0.610371776034914
-0.4972923637937633
-0.5762202756936269
-0.7591205330769646
-0.7644329886856093
-0.7242101105058711
-0.7075138214501308
-0.7181387326674201
-0.6452821986060076
-0.5678721311657566
-0.5170243417687291
-0.6817104656367138
-0.75380807746832
-0.75380807746832
-0.690058610164584
-0.6946121435434223
-0.6627374098915543
-0.6134074649541396
-0.5329617085946632
-0.466935474601508
-0.6354162096185245
-0.7500134663192881
-0.7773346665923178
-0.7135851992885818
-0.7022013658414861
-0.6574249542829096
-0.6080950093454949
-0.5625596755571121
-0.4904620637255058
-0.5193011084581484
-0.7158619659780009
-0.7651919109154157
-0.7386296328721923
-0.6877818434751648
-0.6665320210405862
-0.626309142860848
-0.5800148868426588
-0.5048815860918271
-0.4358196631794464
-0.6460411208358139
-0.7158619659780009
-0.7591205330769646
-0.6855050767857457
-0.6634963321213606
-0.6293448317800735
-0.5929165647493673
-0.5010869749427952
-0.4646587079120889
-0.6733623211088436
-0.7249690327356775
-0.7082727436799371
-0.6384518985377501
-0.6414875874569756
-0.6065771648858821
-0.5359973975138886
-0.4563105633842187
-0.3895254071612572
-0.6156842316435587
-0.690058610164584
-0.7196565771270328
-0.6384518985377501
-0.6445232763762011
-0.6179609983329778
-0.5610418310974993
-0.508676197240859
-0.4084984629064167
-0.6247912984012353
-0.6786747767174883
-0.7143441215183882
-0.6718444766492309
-0.6513535764444586
-0.6247912984012353
-0.5830505757618843
-0.5041226638620206
-0.43126612980060813
-0.6149253094137523
-0.6976478324626478
-0.7211744215866456
-0.680192621177101
-0.6399697429973629
-0.6384518985377501
-0.5898808758301417
-0.5413098531225333
-0.4699711635207336
-0.6968889102328414
-0.7386296328721923
-0.6855050767857457
-0.6498357319848458
-0.6672909432703925
-0.6080950093454949
-0.5655953644763375
-0.4889442192658931
-0.6915764546241967
-0.7409063995616115
-0.7629151442259965
-0.7272457994250966
-0.7128262770587754
-0.7022013658414861
-0.636175131848331
-0.5435866198119524
-0.5929165647493673
-0.7371117884125796
-0.8084504780143794
-0.7826471222009624
-0.7522902330087072
-0.7583616108471583
-0.699924599152067
-0.6513535764444586
-0.5876041091407226
-0.63010375400988
-0.7872006555798007
-0.8084504780143794
-0.7742989776730922
-0.743942088480837
-0.7454599329404498
-0.7158619659780009
-0.6460411208358139
-0.5769791979234332
-0.610371776034914
-0.791754188958639
-0.8122450891634113
-0.7576026886173519
-0.7606383775365774
-0.7522902330087072
-0.6809515434069074
-0.6559071098232968
-0.5549704532590483
-0.7151030437481946
-0.7955488001076709
-0.7796114332817369
-0.7773346665923178
-0.7773346665923178
-0.7166208882078073
-0.648317887525233
-0.5876041091407226
-0.5299260196754376
-0.6756390877982628
-0.8001023334865092
-0.8221110781508942
-0.775816822132705
-0.7644329886856093
-0.7196565771270328
-0.7090316659097435
-0.8061737113249602
-0.7811292777413497
-0.6991656769222605
-0.6824693878665202
-0.6354162096185245
-0.5997468648176246
-0.4965334415639569
-0.40015031837854653
-0.30983857303158724
-0.2559550947153342
-0.16412550490876213
-0.26506216147301076
-0.5678721311657566
-0.6065771648858821
-0.5595239866378865
-0.5435866198119524
-0.5488990754205971
-0.5056405083216334
-0.4403731965582847
-0.3743469625651296
-0.5747024312340141
-0.6589427987425224
-0.6445232763762011
-0.5777381201532397
-0.604300398196463
-0.5511758421100164
-0.4904620637255058
-0.39256109608048273
-0.5390330864331142
-0.6779158544876819
-0.7416653217914179
-0.6718444766492309
-0.6855050767857457
-0.668049865500199
-0.6179609983329778
-0.5769791979234332
-0.4919799081851186
-0.6968889102328414
-0.7735400554432859
-0.8152807780826368
-0.769745444294254
-0.7500134663192881
-0.7295225661145158
-0.6892996879347776
-0.5792559646128524
-0.5557293754888546
-0.785682811120188
-0.8198343114614751
-0.8061737113249602
-0.7765757443625114
-0.7363528661827732
-0.7006835213818733
-0.6521124986742649
-0.5754613534638204
-0.7386296328721923
-0.8183164670018623
-0.823628922610507
-0.7629151442259965
-0.7576026886173519
-0.7325582550337413
-0.6551481875934905
-0.5951933314387864
-0.7576026886173519
-0.839566289436441
-0.855503656262375
-0.7879595778096071
-0.8008612557163156
-0.7583616108471583
-0.6794336989472947
-0.63010375400988
-0.668049865500199
-0.8137629336230241
-0.8828248565354047
-0.8509501228835367
-0.8243878448403134
-0.7879595778096071
-0.7621562219961902
-0.6733623211088436
-0.6126485427243331
-0.7409063995616115
-0.8372895227470218
-0.8706821008585026
-0.8046558668653475
-0.7932720334182518
-0.7682275998346412
-0.6892996879347776
-0.6536303431338777
-0.6027825537368502
-0.7902363444990262
-0.8410841338960537
-0.8190753892316687
-0.7712632887538667
-0.765950833145222
-0.7113084325991627
-0.6786747767174883
-0.5883630313705289
-0.7447010107106434
-0.7947898778778645
-0.8069326335547666
-0.7355939439529668
-0.7287636438847094
-0.712067354828969
-0.6718444766492309
-0.5777381201532397
-0.5375152419735014
-0.743942088480837
-0.807691555784573
-0.7780935888221242
-0.7500134663192881
-0.7462188551702562
-0.6885407657049712
-0.6672909432703925
-0.5898808758301417
-0.5709078200849822
-0.7105495103693562
-0.7970666445672837
-0.769745444294254
-0.728004721654903
-0.7211744215866456
-0.6688087877300053
-0.6080950093454949
-0.5314438641350504
-0.5238546418369866
-0.7022013658414861
-0.7431831662510306
-0.7113084325991627
-0.6892996879347776
-0.6505946542146522
-0.6149253094137523
-0.5655953644763375
-0.4851496081168612
-0.5951933314387864
-0.7006835213818733
-0.7105495103693562
-0.6475589652954267
-0.6574249542829096
-0.5838094979916907
-0.5640775200167247
-0.4859085303466676
-0.4358196631794464
-0.6316215984694926
-0.6695677099598117
-0.6756390877982628
-0.6384518985377501
-0.6240323761714288
-0.5974700981282055
-0.5382741642033079
-0.4676943968313144
-0.3902843293910636
-0.5853273424513035
-0.6968889102328414
-0.6786747767174883
-0.6247912984012353
-0.6134074649541396
-0.5830505757618843
-0.546622308731178
-0.4373375076390592
-0.38724864047183805
-0.5633185977869184
-0.6672909432703925
-0.648317887525233
-0.59443440920898
-0.5800148868426588
-0.5534526087994355
-0.5003280527129887
-0.42747151865157623
-0.3857307960122253
-0.5913987202897545
-0.6505946542146522
-0.6187199205627842
-0.5686310533955631
-0.5640775200167247
-0.5223367973773738
-0.4282304408813826
-0.3857307960122253
-0.5473812309609845
-0.6331394429291054
-0.6346572873887182
-0.5716667423147885
-0.5678721311657566
-0.534479553054276
-0.4775603858187974
-0.397114629459321
-0.4214001408131252
-0.6096128538051077
-0.6172020761031715
-0.6217556094820097
-0.5974700981282055
-0.5777381201532397
-0.5678721311657566
-0.4805960747380229
-0.40318600729777204
-0.520818952917761
-0.6505946542146522
-0.6543892653636841
-0.610371776034914
-0.5769791979234332
-0.5678721311657566
-0.5010869749427952
-0.4676943968313144
-0.40318600729777204
-0.610371776034914
-0.6407286652271692
-0.6080950093454949
-0.5876041091407226
-0.5542115310292418
-0.5481401531907908
-0.5003280527129887
-0.41912337412370604
-0.5883630313705289
-0.6612195654319415
-0.6452821986060076
-0.6293448317800735
-0.5853273424513035
-0.5564882977186609
-0.5079172750110525
-0.4365785854092528
-0.5595239866378865
-0.6695677099598117
-0.6908175323943904
-0.6407286652271692
-0.6293448317800735
-0.598229020358012
-0.5542115310292418
-0.4934977526447314
-0.45858733007363783
-0.6247912984012353
-0.6763980100280691
-0.7135851992885818
-0.6657730988107798
-0.6505946542146522
-0.626309142860848
-0.552693686569629
-0.5041226638620206
-0.4874263748062803
-0.6604606432021352
-0.7325582550337413
-0.7181387326674201
-0.690058610164584
-0.6627374098915543
-0.6225145317118161
-0.5511758421100164
-0.5185421862283419
-0.6217556094820097
-0.7113084325991627
-0.712067354828969
-0.6695677099598117
-0.6430054319165883
-0.63010375400988
-0.5883630313705289
-0.5299260196754376
-0.4881852970360867
-0.6855050767857457
-0.7507723885490944
-0.7166208882078073
-0.7333171772635477
-0.6946121435434223
-0.6232734539416225
-0.5868451869109162
-0.5094351194706653
-0.5246135640667929
-0.7105495103693562
-0.7560848441577391
-0.712067354828969
-0.7128262770587754
-0.6824693878665202
-0.6376929763079437
-0.5800148868426588
-0.5185421862283419
-0.5048815860918271
-0.6817104656367138
-0.7811292777413497
-0.7431831662510306
-0.7181387326674201
-0.6786747767174883
-0.6369340540781373
-0.5876041091407226
-0.5359973975138886
-0.6187199205627842
-0.7393885551019987
-0.7705043665240603
-0.696129988003035
-0.6991656769222605
-0.6559071098232968
-0.6005057870474311
-0.5542115310292418
-0.5337206308244695
-0.7128262770587754
-0.7765757443625114
-0.7651919109154157
-0.7173798104376137
-0.7052370547607116
-0.6559071098232968
-0.6058182426560758
-0.5367563197436951
-0.4934977526447314
-0.7568437663875455
-0.791754188958639
-0.7560848441577391
-0.7325582550337413
-0.7355939439529668
-0.6763980100280691
-0.6134074649541396
-0.5420687753523398
-0.5504169198802099
-0.7234511882760647
-0.7879595778096071
-0.743942088480837
-0.7363528661827732
-0.6968889102328414
-0.67412124333865
-0.5974700981282055
-0.4859085303466676
-0.5716667423147885
-0.7636740664558029
-0.7530491552385136
-0.7211744215866456
-0.7158619659780009
-0.6870229212453585
-0.6604606432021352
-0.5557293754888546
-0.4866674525764739
-0.7188976548972265
-0.7522902330087072
-0.7409063995616115
-0.6794336989472947
-0.7052370547607116
-0.6179609983329778
-0.5913987202897545
-0.5185421862283419
-0.4380964298688656
-0.721933343816452
-0.7500134663192881
-0.7477366996298689
-0.690058610164584
-0.7006835213818733
-0.63010375400988
-0.5898808758301417
-0.5079172750110525
-0.4396142743284783
-0.6354162096185245
-0.7325582550337413
-0.7568437663875455
-0.705995976990518
-0.6923353768540031
-0.6430054319165883
-0.5860862646811098
-0.5071583527812462
-0.476801463588991
-0.7105495103693562
-0.7750578999028986
-0.7082727436799371
-0.6885407657049712
-0.6855050767857457
-0.6278269873204607
-0.5807738090724651
-0.4836317636572484
-0.642246509686782
-0.7682275998346412
-0.7644329886856093
-0.7173798104376137
-0.7181387326674201
-0.6703266321896181
-0.6392108207675564
-0.5420687753523398
-0.4805960747380229
-0.6695677099598117
-0.7947898778778645
-0.8152807780826368
-0.7401474773318051
-0.7196565771270328
-0.7158619659780009
-0.6642552543511671
-0.5936754869791736
-0.534479553054276
-0.6855050767857457
-0.7849238888903816
-0.8130040113932177
-0.7765757443625114
-0.7325582550337413
-0.7355939439529668
-0.6930942990838095
-0.6088539315753012
-0.5435866198119524
-0.7325582550337413
-0.79782556679709
-0.8084504780143794
-0.7500134663192881
-0.7720222109836731
-0.7242101105058711
-0.6642552543511671
-0.6323805206992991
-0.566354286706144
-0.7469777774000625
-0.8084504780143794
-0.8243878448403134
-0.7963077223374773
-0.7841649666605752
-0.7591205330769646
-0.6938532213136159
-0.6437643541463948
-0.566354286706144
-0.7507723885490944
-0.8327359893681836
-0.8577804229517941
-0.8092094002441858
-0.8038969446355411
-0.8001023334865092
-0.7181387326674201
-0.6726033988790372
-0.5815327313022716
-0.6407286652271692
-0.8130040113932177
-0.8539858118027622
-0.8289413782191517
-0.7818881999711561
-0.8092094002441858
-0.7515313107789008
-0.6794336989472947
-0.6202377650223969
-0.610371776034914
-0.8092094002441858
-0.8350127560576027
-0.8061737113249602
-0.7879595778096071
-0.7606383775365774
-0.7082727436799371
-0.6505946542146522
-0.5800148868426588
-0.658183876512716
-0.8023791001759283
-0.8266646115297325
-0.8145218558528304
-0.7796114332817369
-0.7765757443625114
-0.7188976548972265
-0.6543892653636841
-0.5648364422465312
-0.5534526087994355
-0.7591205330769646
-0.8183164670018623
-0.7818881999711561
-0.7477366996298689
-0.7348350217231604
-0.7097905881395499
-0.6452821986060076
-0.5815327313022716
-0.4934977526447314
-0.6984067546924542
-0.7803703555115433
-0.7629151442259965
-0.7302814883443222
-0.7075138214501308
-0.6824693878665202
-0.6490768097550395
-0.5716667423147885
-0.4851496081168612
-0.6005057870474311
-0.7522902330087072
-0.7674686776048348
-0.7075138214501308
-0.7067548992203243
-0.6718444766492309
-0.6156842316435587
-0.5443455420417589
-0.4631408634524761
-0.6217556094820097
-0.7530491552385136
-0.7689865220644476
-0.7029602880712924
-0.7196565771270328
-0.6877818434751648
-0.6991656769222605
-0.7727811332134795
-0.7052370547607116
-0.616443153873365
-0.6430054319165883
-0.6088539315753012
-0.5435866198119524
-0.4214001408131252
-0.37586480702474234
-0.2756870726903001
-0.18309856065392163
-0.12086693780979842
-0.04876932597819225
-0.44720349662654213
-0.6035414759666565
-0.6005057870474311
-0.5397920086629205
-0.5542115310292418
-0.5519347643398227
-0.4798371525082165
-0.4176055296640933
-0.31211533972100636
-0.578497042383046
-0.7022013658414861
-0.6938532213136159
-0.6316215984694926
-0.6490768097550395
-0.616443153873365
-0.5686310533955631
-0.5230957196071803
-0.46617655237170164
-0.7401474773318051
-0.7780935888221242
-0.8099683224739921
-0.759879455306771
-0.7613972997663838
-0.7173798104376137
-0.6559071098232968
-0.598229020358012
-0.5959522536685927
-0.8479144339643112
-0.9048336011997897
-0.8949676122123068
-0.8759945564671473
-0.8524679673431494
-0.801620177946122
-0.7522902330087072
-0.680192621177101
-0.6718444766492309
-0.887378389914243
-0.9488510905285599
-0.9306369570132067
-0.9184942013363045
-0.8828248565354047
-0.8706821008585026
-0.7932720334182518
-0.7325582550337413
-0.7409063995616115
-0.9594760017458491
-0.9708598351929448
-0.9427797126901087
-0.9238066569449492
-0.903315756740177
-0.8608161118710197
-0.8107272447037985
-0.7226922660462584
-0.9055925234295961
-1.0019756466150065
-1.0103237911428766
-0.9579581572862363
-0.9625116906650747
-0.9200120457959173
-0.8668874897094707
-0.8054147890951538
-0.7226922660462584
-0.9260834236343684
-1.0437163692543574
-1.0421985247947447
-0.9822436686400405
-0.9852793575592661
-0.9769312130313959
-0.893449767752694
-0.8668874897094707
-0.759879455306771
-0.9283601903237876
-1.0323325358072617
-1.062689424999517
-0.9989399576957809
-1.0179130134409404
-0.9837615130996533
-0.9230477347151429
-0.8501912006537303
-0.7811292777413497
-0.9405029460006896
-1.0391628358755192
-1.042957447024551
-0.9799669019506214
-0.9966631910063618
-0.9738955241121704
-0.9109049790382407
-0.8433609005854729
-0.8524679673431494
-1.0368860691861
-1.0778678695956445
-1.0186719356707468
-0.9905918131679108
-0.9678241462737194
-0.9321548014728195
-0.8729588675479217
-0.8737177897777281
-1.033091458037068
-1.0414396025649382
-0.9883150464784917
-0.9716187574227513
-0.9344315681622386
-0.8926908455228877
-0.829700300448958
-0.7211744215866456
-0.6308626762396863
-0.8479144339643112
-0.9670652240439129
-0.9883150464784917
-0.95719923505643
-0.9124228234978535
-0.9200120457959173
-0.8547447340325686
-0.8031380224057347
-0.7204154993568392
-0.9184942013363045
-0.9966631910063618
-0.9663063018141066
-0.9177352791064982
-0.931395879243013
-0.8911730010632749
-0.8069326335547666
-0.7742989776730922
-0.8851016232248239
-0.9655473795843001
-0.989073968708298
-0.9283601903237876
-0.941261868230496
-0.8896551566036621
-0.8061737113249602
-0.7773346665923178
-0.7226922660462584
-0.9200120457959173
-0.995145346546749
-0.9981810354659746
-0.9382261793112705
-0.9480921682987534
-0.899521145591145
-0.8524679673431494
-0.7735400554432859
-0.7409063995616115
-0.945056479379528
-0.995145346546749
-1.0004578021553938
-0.951127857217979
-0.9405029460006896
-0.899521145591145
-0.8539858118027622
-0.7651919109154157
-0.7075138214501308
-0.909387134578628
-0.9852793575592661
-0.9655473795843001
-0.9086282123488216
-0.9169763568766919
-0.8691642563988898
-0.8228700003807006
-0.728004721654903
-0.8274235337595389
-0.9473332460689471
-0.973136601882364
-0.8949676122123068
-0.8744767120075345
-0.8486733561941175
-0.8167986225422496
-0.7173798104376137
-0.6225145317118161
-0.7712632887538667
-0.8858605454546302
-0.91318174572766
-0.861575034100826
-0.8342538338277963
-0.8069326335547666
-0.7500134663192881
-0.6748801655684563
-0.6050593204262693
-0.7705043665240603
-0.8805480898459855
-0.8767534786969536
-0.8205932336912815
-0.8099683224739921
-0.7735400554432859
-0.7173798104376137
-0.6521124986742649
-0.5686310533955631
-0.7044781325309052
-0.8130040113932177
-0.8471555117345048
-0.7765757443625114
-0.7462188551702562
-0.7484956218596753
-0.6832283100963266
-0.6285859095502672
-0.572425664544595
-0.8038969446355411
-0.8084504780143794
-0.7591205330769646
-0.759879455306771
-0.7128262770587754
-0.6566660320531033
-0.6073360871156884
-0.5488990754205971
-0.6126485427243331
-0.7689865220644476
-0.8228700003807006
-0.7940309556480581
-0.7553259219279327
-0.7621562219961902
-0.6817104656367138
-0.6134074649541396
-0.5420687753523398
-0.680192621177101
-0.8046558668653475
-0.8130040113932177
-0.7879595778096071
-0.7674686776048348
-0.737870710642386
-0.7158619659780009
-0.6225145317118161
-0.546622308731178
-0.7143441215183882
-0.8107272447037985
-0.8152807780826368
-0.7469777774000625
-0.7310404105741285
-0.6991656769222605
-0.6870229212453585
-0.6073360871156884
-0.5967111758983992
-0.7621562219961902
-0.801620177946122
-0.7416653217914179
-0.743942088480837
-0.7447010107106434
-0.6726033988790372
-0.6156842316435587
-0.5496579976504036
-0.7431831662510306
-0.8107272447037985
-0.7940309556480581
-0.7712632887538667
-0.7773346665923178
-0.7204154993568392
-0.6589427987425224
-0.6194788427925906
-0.6111306982647204
-0.7826471222009624
-0.8281824559893453
-0.8084504780143794
-0.7849238888903816
-0.7712632887538667
-0.7340760994933541
-0.6657730988107798
-0.6255502206310416
-0.5989879425878183
-0.7788525110519305
-0.8304592226787644
-0.8327359893681836
-0.7591205330769646
-0.7492545440894817
-0.7302814883443222
-0.6839872323261329
-0.6134074649541396
-0.5496579976504036
-0.7363528661827732
-0.8001023334865092
-0.8228700003807006
-0.7925131111884454
-0.7887185000394135
-0.7462188551702562
-0.6809515434069074
-0.6445232763762011
-0.699924599152067
-0.8046558668653475
-0.8183164670018623
-0.791754188958639
-0.7629151442259965
-0.7507723885490944
-0.6877818434751648
-0.6445232763762011
-0.5413098531225333
-0.7022013658414861
-0.8031380224057347
-0.8372895227470218
-0.7955488001076709
-0.7872006555798007
-0.7393885551019987
-0.743942088480837
-0.6468000430656203
-0.5853273424513035
-0.6733623211088436
-0.8069326335547666
-0.8205932336912815
-0.7925131111884454
-0.7386296328721923
-0.728004721654903
-0.6870229212453585
-0.6050593204262693
-0.5314438641350504
-0.6543892653636841
-0.769745444294254
-0.8031380224057347
-0.7234511882760647
-0.7090316659097435
-0.680192621177101
-0.6293448317800735
-0.5678721311657566
-0.5185421862283419
-0.7317993328039349
-0.759879455306771
-0.7386296328721923
-0.7113084325991627
-0.6779158544876819
-0.6445232763762011
-0.584568420221497
-0.4950155971043441
-0.5648364422465312
-0.7196565771270328
-0.7796114332817369
-0.7272457994250966
-0.6892996879347776
-0.6855050767857457
-0.6293448317800735
-0.5640775200167247
-0.5177832639985356
-0.5443455420417589
-0.6672909432703925
-0.7014424436116797
-0.6278269873204607
-0.520818952917761
-0.42671259642176984
-0.2521604835663023
-0.022965970164775303
0.1895322541810113
0.27073693277029404
0.07038146410140952
0.08024745308889247
0.21837129891365378
0.2130588433050091
0.26162986601261745
0.35725406696822143
0.4672977902901467
0.5841718136803293
0.5120742018487231
0.3147544220990641
0.25555848817416643
0.30944196649041944
0.1864965652617858
0.0597565528841202
0.004355230108254403
-0.03814441476090292
-0.09885819314541337
-0.3659988180372594
-0.6073360871156884
-0.7765757443625114
-0.8888962343738558
-0.9647884573544938
-1.0543412804716468
-1.136304881290736
-1.1970186596752463
-1.234205848935759
-1.3928205949652925
-1.640988164111979
-1.7472372762848725
-1.8109867435886084
-1.8292008771039614
-1.8595577662962166
-1.8269241104145424
-1.774558476557902
-1.6705861310744279
-1.612908041609143
-1.6865234979003618
-1.7032197869561023
-1.6470595419504301
-1.505141084976637
-1.4125525729402584
-1.3032677718481396
-1.1560368592657018
-1.0399217581053255
-0.893449767752694
-0.9480921682987534
-1.005011335534232
-0.9329137237026258
-0.801620177946122
-0.7545669996981264
-0.6976478324626478
-0.5701488978551759
-0.4084984629064167
-0.20966083869714497
-0.263544317013398
-0.3462668400622935
-0.31742779532965104
-0.29693689512487875
-0.2362231167403683
-0.22332143883365982
-0.13452753794631328
-0.042697948139741204
-0.16564334936837488
-0.31363318418061914
-0.36068636242861474
-0.37662372925454873
-0.40394492952757843
-0.4593462523034442
-0.4965334415639569
-0.5291670974456313
-0.5375152419735014
-0.5633185977869184
-0.5830505757618843
-0.642246509686782
-0.9701009129631385
-1.2144738709607932
-1.3085802274567844
-1.313892683065429
-1.3685350836114885
-1.425454250846967
-1.4322845509152244
-1.383713528207616
-1.3450084944874905
-1.4482219177411584
-1.5309444407900539
-1.5210784518025708
-1.4368380842940627
-1.4178650285489032
-1.387508139356648
-1.31996406090388
-1.172733148321442
-1.0680018806081617
-1.110501525477319
-1.1947418929858271
-1.2326880044761461
-1.172733148321442
-1.0854570918937083
-1.0604126583100977
-0.9769312130313959
-0.8289413782191517
-0.7143441215183882
-0.6559071098232968
-0.8782713231565664
-0.9723776796525576
-0.9177352791064982
-0.8008612557163156
-0.7568437663875455
-0.6088539315753012
-0.4532748744649932
-0.2521604835663023
-0.13604538240592604
-0.33564192884500416
-0.41912337412370604
-0.37207019587571044
-0.29693689512487875
-0.25443725025572145
-0.21497329430578963
-0.17475041612605147
-0.12010801557999204
-0.11251879328192824
-0.4517570300053804
-0.6650141765809734
-0.7363528661827732
-0.7826471222009624
-0.8289413782191517
-0.8797891676161792
-0.925324501404562
-0.9184942013363045
-1.058894813850485
-1.3047856163077525
-1.421659639697935
-1.4709895846353498
-1.5066589294362496
-1.5339801297092794
-1.5157659961939263
-1.5339801297092794
-1.4451862288219328
-1.5279087518708283
-1.6910770312792003
-1.7449605095954532
-1.7108090092541661
-1.6979073313474575
-1.6326400195841089
-1.5628191744419218
-1.4800966513930263
-1.3412138833384586
-1.2987142384693013
-1.4262131730767733
-1.4383559287536754
-1.4004098172633563
-1.3556334057047799
-1.2455896823828547
-1.0634483472293232
-0.963270612894881
-0.8198343114614751
-0.6430054319165883
-0.8479144339643112
-0.7940309556480581
-0.7484956218596753
-0.6088539315753012
-0.5633185977869184
-0.5033637416322143
-0.42747151865157623
-0.36675774026706576
-0.44340888547751023
-0.6452821986060076
-0.7128262770587754
-0.7545669996981264
-0.8509501228835367
-0.9222888124853365
-0.9587170795160428
-1.1833580595387314
-1.2767054938049163
-1.3093391496865907
-1.3336246610403948
-1.3913027505056799
-1.36398155023265
-1.2425539934636292
-1.0816624807446764
-1.017154091211134
-0.9442975571497215
-0.8577804229517941
-0.8023791001759283
-1.1097426032475126
-1.2448307601530484
-1.2683573492770461
-1.2015721930540846
-1.1939829707560208
-1.176527759470474
-1.1575547037253144
-1.0596537360802913
-0.9663063018141066
-1.0900106252725466
-1.2144738709607932
-1.2729108826558844
-1.2357236933953717
-1.2152327931905995
-1.228134471097308
-1.1856348262281506
-1.108983681017706
-1.0960820031109977
-1.2964374717798821
-1.3161694497548482
-1.282017949413561
-1.2653216603578206
-1.2546967491405312
-1.2304112377867271
-1.198536504134859
-1.1120193699369316
-1.134787036831123
-1.3116159163760097
-1.3571512501643928
-1.3412138833384586
-1.326035438742331
-1.3154105275250416
-1.2736698048856907
-1.2190274043396314
-1.1696974594022167
-1.1613493148743463
-1.3730886169903267
-1.3632226280028437
-1.3389371166490396
-1.326035438742331
-1.2903660939414312
-1.262285971438595
-1.2288933933271142
-1.1651439260233782
-1.1476887147378316
-1.3465263389471034
-1.373847539220133
-1.3419728055682651
-1.3176872942144608
-1.2949196273202694
-1.266080582587627
-1.1955008152156337
-1.1393405702099615
-1.2531789046809185
-1.3252765165125246
-1.3533566390153609
-1.3078213052269778
-1.288089327252012
-1.2774644160347226
-1.1992954263646656
-1.1522422481166699
-1.0680018806081617
-1.1833580595387314
-1.3131337608356226
-1.3298300498913629
-1.3116159163760097
-1.2926428606308502
-1.2683573492770461
-1.2524199824511122
-1.1788045261598932
-1.208402493122342
-1.3123748386058163
-1.3245175942827183
-1.2577324380597568
-1.263803815898208
-1.2137149487309866
-1.1848759039983443
-1.0938052364215785
-1.0179130134409404
-0.9465743238391406
-0.9306369570132067
-1.1757688372406676
-1.2531789046809185
-1.2493842935318866
-1.1598314704147337
-1.1734920705512486
-1.1530011703464762
-1.100635536489836
-1.0255022357390042
-1.0733143362168063
-1.2524199824511122
-1.2774644160347226
-1.2197863265694378
-1.198536504134859
-1.1955008152156337
-1.1681796149426038
-1.1196085922349954
-1.0292968468880361
-1.1036712254090615
-1.2615270492087887
-1.304026694077946
-1.2713930381962717
-1.2516610602213056
-1.2372415378549846
-1.1955008152156337
-1.1575547037253144
-1.071037569527387
-1.156795781495508
-1.2987142384693013
-1.3488031056365224
-1.3009910051587206
-1.2873304050222056
-1.2486253713020803
-1.2106792598117613
-1.176527759470474
-1.136304881290736
-1.246348604612661
-1.3434906500278778
-1.3571512501643928
-1.2896071717116249
-1.2911250161712375
-1.2683573492770461
-1.2167506376502122
-1.1734920705512486
-1.2167506376502122
-1.3389371166490396
-1.377642150369165
-1.3321068165807821
-1.3252765165125246
-1.285812560562593
-1.2417950712338228
-1.19625973744544
-1.1287156589926721
-1.27594657157511
-1.3548744834749735
-1.3799189170585842
-1.3321068165807821
-1.3336246610403948
-1.3192051386740735
-1.2478664490722737
-1.2129560265011803
-1.156795781495508
-1.2569735158299504
-1.3768832281393586
-1.3609458613134247
-1.3465263389471034
-1.3078213052269778
-1.301749927388527
-1.2539378269107249
-1.2099203375819547
-1.1681796149426038
-1.2099203375819547
-1.3434906500278778
-1.3556334057047799
-1.3169283719846545
-1.2994731606991077
-1.294160705090463
-1.2425539934636292
-1.182599137308925
-1.1309924256820911
-1.2509021379914993
-1.3245175942827183
-1.377642150369165
-1.2949196273202694
-1.2850536383327864
-1.2592502825193694
-1.218268482109825
-1.301749927388527
-1.3488031056365224
-1.2706341159664654
-1.2425539934636292
-1.24027722677421
-1.202331115283891
-1.1112604477071253
-1.0596537360802913
-0.9701009129631385
-0.8949676122123068
-0.8350127560576027
-0.791754188958639
-1.0953230808811913
-1.2159917154204058
-1.2099203375819547
-1.1674206927127975
-1.1636260815637656
-1.1408584146695742
-1.118849670005189
-1.0361271469562936
-0.9534046239073981
-1.1416173368993805
-1.2653216603578206
-1.2516610602213056
-1.1696974594022167
-1.212197104271374
-1.1598314704147337
-1.108983681017706
-1.0421985247947447
-0.9966631910063618
-1.2152327931905995
-1.2789822604943355
-1.2630448936684016
-1.2030900375136975
-1.2091614153521484
-1.1818402150791187
-1.1355459590609296
-1.0505466693226149
-1.0649661916889361
-1.2903660939414312
-1.3715707725307138
-1.3381781944192332
-1.3108569941462034
-1.2812590271837545
-1.2410361490040165
-1.224339859948276
-1.1560368592657018
-1.1165729033157699
-1.3305889721211694
-1.3685350836114885
-1.3647404724624566
-1.326035438742331
-1.31996406090388
-1.28429471610298
-1.228134471097308
-1.1810812928493124
-1.1256799700734466
-1.3351425055000077
-1.3920616727354862
-1.3928205949652925
-1.326035438742331
-1.3252765165125246
-1.3063034607673651
-1.2433129156934355
-1.1917062040666015
-1.236482615625178
-1.3708118503009075
-1.387508139356648
-1.348044183406716
-1.31996406090388
-1.2744287271154973
-1.2668395048174335
-1.1848759039983443
-1.1575547037253144
-1.2956785495500758
-1.3753653836797457
-1.383713528207616
-1.3450084944874905
-1.3586690946240054
-1.3275532832019439
-1.2888482494818183
-1.2433129156934355
-1.1818402150791187
-1.3488031056365224
-1.4246953286171606
-1.415588261859484
-1.3973741283441308
-1.3867492171268414
-1.3229997498231054
-1.31996406090388
-1.236482615625178
-1.1810812928493124
-1.3161694497548482
-1.383713528207616
-1.4057222728720011
-1.351838794555748
-1.3708118503009075
-1.3275532832019439
-1.2782233382645292
-1.2190274043396314
-1.1848759039983443
-1.3662583169220692
-1.4049633506421946
-1.3821956837480032
-1.3692940058412948
-1.3267943609721373
-1.2964374717798821
-1.2387593823145973
-1.176527759470474
-1.1438941035887997
-1.3321068165807821
-1.377642150369165
-1.3852313726672287
-1.3176872942144608
-1.31996406090388
-1.282017949413561
-1.2357236933953717
-1.1408584146695742
-1.0862160141235147
-1.2751876493453036
-1.3533566390153609
-1.3298300498913629
-1.323758672052912
-1.2645627381280142
-1.2706341159664654
-1.1992954263646656
-1.1378227257503486
-1.0884927808129339
-1.2190274043396314
-1.3313478943509758
-1.323758672052912
-1.2691162715068525
-1.2668395048174335
-1.2486253713020803
-1.1932240485262144
-1.1309924256820911
-1.0915284697321594
-1.2410361490040165
-1.3055445385375588
-1.2903660939414312
-1.2455896823828547
-1.2425539934636292
-1.1833580595387314
-1.1659028482531848
-1.0991176920302232
-1.0361271469562936
-1.2539378269107249
-1.3108569941462034
-1.2971963940096887
-1.2706341159664654
-1.2713930381962717
-1.2288933933271142
-1.186393748457957
-1.1241621256138337
-1.0862160141235147
-1.246348604612661
-1.3078213052269778
-1.3321068165807821
-1.288089327252012
-1.2797411827241418
-1.2387593823145973
-1.2015721930540846
-1.1271978145330592
-1.0778678695956445
-1.2698751937366588
-1.326035438742331
-1.3161694497548482
-1.2698751937366588
-1.24027722677421
-1.2448307601530484
-1.2106792598117613
-1.1340281146013167
-1.1955008152156337
-1.3245175942827183
-1.3381781944192332
-1.285812560562593
-1.2888482494818183
-1.2478664490722737
-1.2053668042031165
-1.1378227257503486
-1.0854570918937083
-1.2531789046809185
-1.3571512501643928
-1.360186939083618
-1.304026694077946
-1.2956785495500758
-1.2691162715068525
-1.2046078819733101
-1.1712153038618294
-1.1408584146695742
-1.3123748386058163
-1.3730886169903267
-1.31996406090388
-1.3070623829971715
-1.3161694497548482
-1.2767054938049163
-1.2038489597435038
-1.1492065591974443
-1.1416173368993805
-1.3412138833384586
-1.365499394692263
-1.3116159163760097
-1.3533566390153609
-1.3063034607673651
-1.2865714827923993
-1.2068846486627294
-1.1537600925762825
-1.3412138833384586
-1.3882670615864543
-1.3571512501643928
-1.3275532832019439
-1.3063034607673651
-1.2987142384693013
-1.260009204749176
-1.3700529280711011
-1.4057222728720011
-1.3245175942827183
-1.3108569941462034
-1.3078213052269778
-1.260009204749176
-1.1780456039300868
-1.1234032033840273
-1.0543412804716468
-0.9663063018141066
-1.122644281154221
-1.322240827593299
-1.339696038878846
-1.285812560562593
-1.2827768716433674
-1.2713930381962717
-1.2569735158299504
-1.1818402150791187
-1.1074658365580934
-1.2228220154886633
-1.3525977167855543
-1.3586690946240054
-1.297955316239495
-1.3275532832019439
-1.2774644160347226
-1.2410361490040165
-1.2349647711655654
-1.2106792598117613
-1.3267943609721373
-1.3389371166490396
-1.2971963940096887
-1.2805001049539482
-1.3009910051587206
-1.2607681269789823
-1.1871526706877633
-1.1112604477071253
-1.2645627381280142
-1.3692940058412948
-1.373847539220133
-1.3624637057730373
-1.3298300498913629
-1.2987142384693013
-1.2471075268424674
-1.208402493122342
-1.1476887147378316
-1.2956785495500758
-1.3730886169903267
-1.3973741283441308
-1.365499394692263
-1.3586690946240054
-1.3214819053634927
-1.294160705090463
-1.2053668042031165
-1.162108237104153
-1.282017949413561
-1.3768832281393586
-1.3973741283441308
-1.3404549611086523
-1.335901427729814
-1.3427317277980715
-1.2713930381962717
-1.2410361490040165
-1.1575547037253144
-1.2417950712338228
-1.3412138833384586
-1.3730886169903267
-1.310098071916397
-1.2888482494818183
-1.28429471610298
-1.2425539934636292
-1.1841169817685377
-1.1340281146013167
-1.2653216603578206
-1.349562027866329
-1.3685350836114885
-1.3192051386740735
-1.2789822604943355
-1.2729108826558844
-1.2304112377867271
-1.1666617704829911
-1.0991176920302232
-1.2159917154204058
-1.3108569941462034
-1.3108569941462034
-1.2865714827923993
-1.2706341159664654
-1.2395183045444036
-1.222063093258857
-1.1469297925080253
-1.0884927808129339
-1.062689424999517
-1.2531789046809185
-1.3108569941462034
-1.2911250161712375
-1.2577324380597568
-1.2304112377867271
-1.1803223706195058
-1.1355459590609296
-1.0884927808129339
-1.0239843912793916
-1.2250987821780823
-1.2805001049539482
-1.2577324380597568
-1.222063093258857
-1.224339859948276
-1.1917062040666015
-1.156795781495508
-1.055100202701453
-1.1135372143965445
-1.266080582587627
-1.2896071717116249
-1.2311701600165335
-1.2068846486627294
-1.2030900375136975
-1.1476887147378316
-1.0839392474340956
-1.0224665468197787
-1.0581358916206787
-1.2304112377867271
-1.2782233382645292
-1.2410361490040165
-1.2258577044078889
-1.2046078819733101
-1.2114381820415676
-1.300232082928914
-1.2592502825193694
-1.172733148321442
-1.1332691923715104
-1.122644281154221
-1.0497877470928085
-0.9921096576275236
-0.8980033011315323
-0.8243878448403134
-0.7295225661145158
-0.6559071098232968
-0.6445232763762011
-1.0141184022919085
-1.1256799700734466
-1.0998766142600296
-1.0581358916206787
-1.0581358916206787
-1.0384039136457128
-0.9784490574910086
-0.9215298902555301
-1.0080470244534576
-1.1772866817002805
-1.1939829707560208
-1.1454119480484124
-1.1492065591974443
-1.100635536489836
-1.1036712254090615
-1.0338503802668744
-1.0459931359437766
-1.2410361490040165
-1.322240827593299
-1.3343835832702013
-1.2987142384693013
-1.2934017828606568
-1.2524199824511122
-1.198536504134859
-1.1279567367628656
-1.2888482494818183
-1.4201417952383222
-1.425454250846967
-1.413311495170065
-1.4224185619277414
-1.3799189170585842
-1.3389371166490396
-1.2812590271837545
-1.2956785495500758
-1.4603646734180604
-1.5074178516660561
-1.4929983292997349
-1.459605751188254
-1.4618825178776733
-1.4186239507787095
-1.3647404724624566
-1.3351425055000077
-1.505141084976637
-1.561301329982309
-1.5180427628833453
-1.505141084976637
-1.4983107849083794
-1.4869269514612837
-1.427731017536386
-1.3556334057047799
-1.4763020402439944
-1.5840689968765005
-1.6121491193793367
-1.581033307957275
-1.5453639631563751
-1.5521942632246326
-1.5043821627468306
-1.441391617672901
-1.4072401173316138
-1.540810429777537
-1.634916786273528
-1.6402292418821727
-1.5946939080937899
-1.5764797745784367
-1.5620602522121154
-1.5195606073429582
-1.4459451510517392
-1.3829546059778095
-1.543087196466956
-1.6113901971495301
-1.6379524751927534
-1.5825511524168878
-1.5962117525534025
-1.5461228853861815
-1.4998286293679923
-1.4482219177411584
-1.4338023953748371
-1.5817922301870813
-1.5946939080937899
-1.5681316300505665
-1.549158574305407
-1.5104535405852815
-1.4816144958526392
-1.5301855185602475
-1.5901403747149516
-1.5127303072747007
-1.4800966513930263
-1.4482219177411584
-1.4292488619959989
-1.3700529280711011
-1.282017949413561
-1.170456381632023
-1.0915284697321594
-1.0255022357390042
-1.1158139810859635
-1.3571512501643928
-1.413311495170065
-1.385990294897035
-1.3419728055682651
-1.3381781944192332
-1.3025088496183332
-1.2455896823828547
-1.1659028482531848
-1.2539378269107249
-1.3746064614499394
-1.3988919728037437
-1.348044183406716
-1.3267943609721373
-1.3025088496183332
-1.263803815898208
-1.2099203375819547
-1.112778292166738
-1.3252765165125246
-1.3867492171268414
-1.3966152061143244
-1.3541155612451672
-1.3556334057047799
-1.3305889721211694
-1.2751876493453036
-1.2372415378549846
-1.1628671593339592
-1.3510798723259416
-1.4163471840892903
-1.4383559287536754
-1.3890259838162606
-1.387508139356648
-1.3442495722576842
-1.3078213052269778
-1.2486253713020803
-1.1932240485262144
-1.3556334057047799
-1.4307667064556115
-1.4558111400392222
-1.3981330505739373
-1.3905438282758733
-1.3692940058412948
-1.3047856163077525
-1.2767054938049163
-1.2653216603578206
-1.4163471840892903
-1.427731017536386
-1.415588261859484
-1.3821956837480032
-1.3465263389471034
-1.3321068165807821
-1.2805001049539482
-1.1780456039300868
-1.3169283719846545
-1.4262131730767733
-1.4451862288219328
-1.39965089503355
-1.3784010725989713
-1.3465263389471034
-1.3025088496183332
-1.2653216603578206
-1.1886705151473762
-1.31996406090388
-1.4330434731450308
-1.4626414401074797
-1.4049633506421946
-1.389784906046067
-1.3563923279345862
-1.3412138833384586
-1.238000460084791
-1.1833580595387314
-1.323758672052912
-1.4163471840892903
-1.4300077842258052
-1.3988919728037437
-1.36398155023265
-1.3343835832702013
-1.294160705090463
-1.2304112377867271
-1.1689385371724101
-1.3442495722576842
-1.3768832281393586
-1.3821956837480032
-1.345767416717297
-1.3488031056365224
-1.2971963940096887
-1.313892683065429
-1.4042044284123882
-1.3799189170585842
-1.3009910051587206
-1.2994731606991077
-1.288089327252012
-1.2197863265694378
-1.1560368592657018
-1.0513055915524212
-0.9860382797890724
-0.9291191125535939
-0.9442975571497215
-1.246348604612661
-1.3146516052952353
-1.2949196273202694
-1.2524199824511122
-1.2675984270472398
-1.2167506376502122
-1.172733148321442
-1.122644281154221
-1.1029123031792551
-1.2949196273202694
-1.3723296947605204
-1.3761243059095523
-1.3351425055000077
-1.3169283719846545
-1.263803815898208
-1.2410361490040165
-1.162108237104153
-1.2046078819733101
-1.3533566390153609
-1.4140704173998713
-1.3829546059778095
-1.3381781944192332
-1.3366603499596204
-1.3032677718481396
-1.2524199824511122
-1.2235809377184697
-1.4231774841575477
-1.4421505399027073
-1.415588261859484
-1.3935795171950989
-1.3806778392883905
-1.345767416717297
-1.2873304050222056
-1.2509021379914993
-1.4011687394931627
-1.5059000072064432
-1.491480484840122
-1.4611235956478668
-1.459605751188254
-1.4201417952383222
-1.3791599948287776
-1.3472852611769097
-1.301749927388527
-1.4671949734863179
-1.5225962962621837
-1.5036232405170242
-1.4641592845670923
-1.4785788069334136
-1.4542932955796093
-1.3867492171268414
-1.3351425055000077
-1.288089327252012
-1.463400362337286
-1.52335521849199
-1.5021053960574113
-1.4641592845670923
-1.4618825178776733
-1.4102758062508394
-1.360186939083618
-1.3047856163077525
-1.3009910051587206
-1.4588468289584477
-1.4937572515295412
-1.4459451510517392
-1.4360791620642563
-1.4125525729402584
-1.3981330505739373
-1.3450084944874905
-1.250143215761693
-1.349562027866329
-1.4368380842940627
-1.475543118014188
-1.4406326954430946
-1.4338023953748371
-1.4284899397661925
-1.3472852611769097
-1.2926428606308502
-1.2357236933953717
-1.3465263389471034
-1.4929983292997349
-1.4922394070699285
-1.4550522178094158
-1.4391148509834817
-1.4178650285489032
-1.36398155023265
-1.2964374717798821
-1.2296523155569208
-1.2994731606991077
-1.4193828730085158
-1.4110347284806457
-1.4193828730085158
-1.3723296947605204
-1.361704783543231
-1.3343835832702013
-1.2410361490040165
-1.1636260815637656
-1.1977775819050527
-1.3381781944192332
-1.3905438282758733
-1.3670172391518756
-1.3328657388105885
-1.345767416717297
-1.2964374717798821
-1.2387593823145973
-1.1674206927127975
-1.3267943609721373
-1.4019276617229692
-1.415588261859484
-1.3328657388105885
-1.3586690946240054
-1.326035438742331
-1.2873304050222056
-1.208402493122342
-1.148447636967638
-1.3116159163760097
-1.4209007174681287
-1.4360791620642563
-1.403445506182582
-1.3844724504374224
-1.3594280168538118
-1.3032677718481396
-1.2440718379232418
-1.2030900375136975
-1.2152327931905995
-1.4049633506421946
-1.4603646734180604
-1.4330434731450308
-1.39965089503355
-1.389784906046067
-1.360186939083618
-1.3123748386058163
-1.2509021379914993
-1.1712153038618294
-1.360186939083618
-1.4338023953748371
-1.4140704173998713
-1.373847539220133
-1.3867492171268414
-1.348044183406716
-1.3267943609721373
-1.2683573492770461
-1.2334469267059527
-1.413311495170065
-1.4504986844305774
-1.4322845509152244
-1.4042044284123882
-1.3708118503009075
-1.3450084944874905
-1.2949196273202694
-1.238000460084791
-1.2228220154886633
-1.4338023953748371
-1.4838912625420582
-1.475543118014188
-1.4451862288219328
-1.451257606660384
-1.4110347284806457
-1.3609458613134247
-1.300232082928914
-1.2873304050222056
-1.4717485068651561
-1.5263909074112156
-1.501346473827605
-1.4831323403122518
-1.453534373349803
-1.4322845509152244
-1.4026865839527756
-1.3321068165807821
-1.2812590271837545
-1.4429094621325136
-1.4983107849083794
-1.5005875515977987
-1.411793650710452
-1.39965089503355
-1.3298300498913629
-1.3184462164442672
-1.310098071916397
-1.4125525729402584
-1.5028643182872177
-1.5241141407217964
-1.4656771290267052
-1.4838912625420582
-1.4360791620642563
-1.4102758062508394
-1.3374192721894267
-1.294160705090463
-1.423936406387354
-1.501346473827605
-1.5066589294362496
-1.4884447959208966
-1.5043821627468306
-1.4611235956478668
-1.4087579617912265
-1.3465263389471034
-1.3108569941462034
-1.4049633506421946
-1.4884447959208966
-1.52335521849199
-1.491480484840122
-1.5104535405852815
-1.4671949734863179
-1.409516884021033
-1.3472852611769097
-1.304026694077946
-1.447462995511352
-1.5263909074112156
-1.5362568963986984
-1.4945161737593475
-1.4763020402439944
-1.4816144958526392
-1.4057222728720011
-1.3913027505056799
-1.4550522178094158
-1.5977295970130154
-1.6204972639072068
-1.593176063634177
-1.6182204972177876
-1.5984885192428218
-1.565095941131341
-1.505141084976637
-1.4800966513930263
-1.5855868413361132
-1.6296043306648833
-1.6273275639754643
-1.6000063637024344
-1.5726851634294048
-1.5620602522121154
-1.581033307957275
-1.551435340994826
-1.5188016851131518
-1.4838912625420582
-1.4649182067968987
-1.3723296947605204
-1.3184462164442672
-1.2524199824511122
-1.1613493148743463
-1.096840925340804
-1.096840925340804
-1.3434906500278778
-1.3890259838162606
-1.3472852611769097
-1.300232082928914
-1.3252765165125246
-1.3214819053634927
-1.2311701600165335
-1.2068846486627294
-1.348044183406716
-1.4246953286171606
-1.3381781944192332
-1.3085802274567844
-1.310098071916397
-1.282017949413561
-1.222063093258857
-1.1530011703464762
-1.31996406090388
-1.3692940058412948
-1.3746064614499394
-1.3366603499596204
-1.3154105275250416
-1.2873304050222056
-1.2357236933953717
-1.170456381632023
-1.148447636967638
-1.3047856163077525
-1.3715707725307138
-1.3730886169903267
-1.3556334057047799
-1.2987142384693013
-1.256214593600144
-1.1522422481166699
-1.0900106252725466
-1.1142961366263509
-1.3032677718481396
-1.335901427729814
-1.3169283719846545
-1.297955316239495
-1.2668395048174335
-1.2288933933271142
-1.2159917154204058
-1.2304112377867271
-1.3131337608356226
-1.365499394692263
-1.301749927388527
-1.2850536383327864
-1.2607681269789823
-1.2106792598117613
-1.1659028482531848
-1.1507244036570572
-1.2987142384693013
-1.3594280168538118
-1.3321068165807821
-1.3154105275250416
-1.2569735158299504
-1.1894294373771825
-1.0900106252725466
-0.9587170795160428
-0.9215298902555301
-1.0133594800621022
-0.9298780347834003
-0.8122450891634113
-0.6672909432703925
-0.578497042383046
-0.4760425413591846
-0.35233821790074454
-0.12238478226941119
-0.17247364943663232
-0.31590995087003826
-0.34474899560268074
-0.34474899560268074
-0.27265138377107456
-0.19524131633082373
-0.11175987105212185
0.015739063555350114
0.1584164427589497
0.08555990869753714
-0.16867903828760042
-0.28251737275855754
-0.32425809539790845
-0.41608768520448053
-0.4942566748745377
-0.5830505757618843
-0.6338983651589118
-0.6460411208358139
-0.9298780347834003
-1.154519014806089
-1.2706341159664654
-1.2698751937366588
-1.345767416717297
-1.361704783543231
-1.3609458613134247
-1.3465263389471034
-1.4580879067286412
-1.6303632528946896
-1.6956305646580385
-1.692594875738813
-1.7161214648628107
-1.7070143981051342
-1.6561666087081066
-1.5309444407900539
-1.4125525729402584
-1.4315256286854179
-1.3988919728037437
-1.294160705090463
-1.1317513479118977
-0.9640295351246875
-0.7522902330087072
-0.4851496081168612
-0.27492815046049374
-0.09202789307715595
-0.20890191646733858
-0.27796383937971925
-0.19524131633082373
-0.08367974854928577
-0.03434980361187102
0.09694374214463286
0.29350459966448544
0.3458702335211257
0.33448640007403
0.20850530992617083
0.216853454454041
0.26618339939145574
0.2024339320877198
0.169041353976239
0.16828243174643265
0.2100231543857836
0.18877333195120494
-0.13983999355495794
-0.29390120620565324
-0.41153415182564224
-0.4084984629064167
-0.4737657746697655
-0.4578284078438315
-0.5048815860918271
-0.4638997856822825
-0.5291670974456313
-0.8312181449085708
-1.0368860691861
-1.134787036831123
-1.1757688372406676
-1.2319290822463398
-1.323758672052912
-1.4125525729402584
-1.4042044284123882
-1.4148293396296776
-1.6113901971495301
-1.6538898420186876
-1.5757208523486304
-1.52335521849199
-1.4656771290267052
-1.3078213052269778
-1.084698169663902
-0.8964854566719196
-0.6953710657732286
-0.8107272447037985
-0.7629151442259965
-0.6149253094137523
-0.4859085303466676
-0.41153415182564224
-0.23394635005094916
-0.0389033369907093
0.14779153154166036
0.14855045377146675
-0.02751950354361359
-0.051805014897417775
-0.02827842577341997
-0.057876392735868816
-0.07912621517044748
-0.18841101626256632
-0.25291940579610867
-0.3546149845901637
-0.4525159522351868
-0.7925131111884454
-0.941261868230496
-1.0733143362168063
-1.2076435708925357
-1.28429471610298
-1.27594657157511
-1.310098071916397
-1.3123748386058163
-1.2531789046809185
-1.2873304050222056
-1.453534373349803
-1.4618825178776733
-1.3556334057047799
-1.27594657157511
-1.1977775819050527
-1.0361271469562936
-0.8509501228835367
-0.5830505757618843
-0.3265348620873276
-0.38269510709299975
-0.4168466074342869
-0.3303294732363595
-0.0943046597665751
0.03395319707070325
0.15234506492049865
0.31399549986925773
0.4961368350227891
0.7382330263310246
0.5151098907679487
0.5325651020534954
0.707117214908963
0.8520713608019816
0.8255090827587583
0.8809104055346242
0.862696272019271
0.8042592603241797
0.7739023711319245
0.424039223191183
0.07797068639947334
-0.1261793934184431
-0.28024060606913836
-0.3819361848631934
-0.47073008575053993
-0.5989879425878183
-0.6528714209040714
-0.642246509686782
-0.6908175323943904
-0.6877818434751648
-0.6247912984012353
-0.6376929763079437
-0.5640775200167247
-0.5451044642715652
-0.4851496081168612
-0.42747151865157623
-0.32881162877674674
-0.22256251660385343
-0.6088539315753012
-0.6946121435434223
-0.6968889102328414
-0.6202377650223969
-0.648317887525233
-0.6354162096185245
-0.5876041091407226
-0.5185421862283419
-0.6445232763762011
-0.8001023334865092
-0.8145218558528304
-0.7727811332134795
-0.769745444294254
-0.7651919109154157
-0.7143441215183882
-0.6566660320531033
-0.5913987202897545
-0.829700300448958
-0.9207709680257238
-0.9465743238391406
-0.9154585124170791
-0.9154585124170791
-0.9276012680939811
-0.8630928785604388
-0.7864417333499943
-0.7902363444990262
-1.020948702360166
-1.0642072694591298
-1.071037569527387
-1.0292968468880361
-1.0596537360802913
-1.0163951689813278
-0.945056479379528
-0.903315756740177
-0.8888962343738558
-1.0869749363533212
-1.1469297925080253
-1.1332691923715104
-1.0892517030427402
-1.0702786472975807
-1.0361271469562936
-1.0012167243852002
-0.9238066569449492
-1.0596537360802913
-1.164385003793572
-1.1803223706195058
-1.1021533809494488
-1.110501525477319
-1.055100202701453
-1.0201897801303597
-0.963270612894881
-0.9807258241804279
-1.162108237104153
-1.1901883596069889
-1.1666617704829911
-1.1309924256820911
-1.134787036831123
-1.1294745812224785
-1.2137149487309866
-1.1681796149426038
-1.098358769800417
-1.0915284697321594
-1.0581358916206787
-0.9996988799255874
-0.9276012680939811
-0.8251467670701198
-0.7317993328039349
-0.6718444766492309
-0.5951933314387864
-0.7082727436799371
-0.9769312130313959
-1.049028824863002
-1.0057702577640384
-0.9723776796525576
-0.9814847464102342
-0.9503689349881725
-0.8699231786286962
-0.7955488001076709
-0.9048336011997897
-1.034609302496681
-1.0793857140552574
-1.0368860691861
-1.0201897801303597
-1.007288102223651
-0.9670652240439129
-0.8926908455228877
-0.8942086899825004
-1.0938052364215785
-1.144653025818606
-1.1120193699369316
-1.0786267918254508
-1.062689424999517
-1.0338503802668744
-0.9663063018141066
-0.9146995901872726
-1.0786267918254508
-1.172733148321442
-1.1780456039300868
-1.1408584146695742
-1.1355459590609296
-1.0953230808811913
-1.0437163692543574
-0.9989399576957809
-1.0118416356024895
-1.1788045261598932
-1.202331115283891
-1.1917062040666015
-1.1378227257503486
-1.144653025818606
-1.1082247587878997
-1.0497877470928085
-0.9799669019506214
-1.074832180676419
-1.186393748457957
-1.2114381820415676
-1.1476887147378316
-1.1522422481166699
-1.1120193699369316
-1.071037569527387
-1.020948702360166
-1.0217076245899723
-1.1522422481166699
-1.1788045261598932
-1.1234032033840273
-1.1287156589926721
-1.0938052364215785
-1.0695197250677744
-1.0156362467515214
-0.9594760017458491
-1.1173318255455764
-1.1879115929175696
-1.1522422481166699
-1.1393405702099615
-1.1036712254090615
-1.058894813850485
-1.0300557691178425
-0.9556813905968172
-0.9928685798573299
-1.1416173368993805
-1.1522422481166699
-1.1203675144648018
-1.1097426032475126
-1.0975998475706104
-1.0497877470928085
-0.9837615130996533
-0.941261868230496
-0.9754133685717832
-1.0854570918937083
-1.1279567367628656
-1.0991176920302232
-1.0528234360120339
-1.0520645137822275
-1.017154091211134
-0.973136601882364
-0.8790302453863728
-0.919253123566111
-1.0368860691861
-1.0839392474340956
-1.0300557691178425
-1.0179130134409404
-0.9913507353977171
-0.9685830685035257
-0.8957265344421131
-0.8190753892316687
-0.9442975571497215
-0.995145346546749
-1.0156362467515214
-0.9723776796525576
-1.0118416356024895
-0.9405029460006896
-0.8782713231565664
-0.8501912006537303
-0.7742989776730922
-0.8608161118710197
-1.0118416356024895
-1.0277790024284235
-1.008805946683264
-0.9822436686400405
-0.931395879243013
-0.9389851015410768
-0.8592982674114069
-0.7894774222692199
-0.7500134663192881
-0.931395879243013
-0.9814847464102342
-0.9822436686400405
-0.9321548014728195
-0.9321548014728195
-0.9078692901190153
-0.8608161118710197
-0.7932720334182518
-0.7272457994250966
-0.8312181449085708
-0.9670652240439129
-0.9503689349881725
-0.9177352791064982
-0.9078692901190153
-0.903315756740177
-0.8463965895046984
-0.7902363444990262
-0.7204154993568392
-0.8851016232248239
-0.9549224683670109
-0.9496100127583662
-0.9017979122805642
-0.8759945564671473
-0.8539858118027622
-0.7985844890268964
-0.7302814883443222
-0.6597017209723287
-0.7849238888903816
-0.9200120457959173
-0.9754133685717832
-0.9025568345103706
-0.9055925234295961
-0.8942086899825004
-0.8061737113249602
-0.7811292777413497
-0.7044781325309052
-0.7363528661827732
-0.9215298902555301
-0.9708598351929448
-0.931395879243013
-0.9025568345103706
-0.8972443789017259
-0.8585393451816005
-0.7887185000394135
-0.7226922660462584
-0.737870710642386
-0.9298780347834003
-0.9769312130313959
-0.9215298902555301
-0.903315756740177
-0.899521145591145
-0.8759945564671473
-0.807691555784573
-0.7226922660462584
-0.8980033011315323
-0.973136601882364
-0.995145346546749
-0.9389851015410768
-0.9359494126218514
-0.881307012075792
-0.8418430561258601
-0.765950833145222
-0.7082727436799371
-0.8911730010632749
-0.969341990733332
-1.0065291799938447
-0.9647884573544938
-0.9746544463419767
-0.9238066569449492
-0.8835837787652111
-0.8471555117345048
-0.7872006555798007
-0.8767534786969536
-1.007288102223651
-1.0224665468197787
-0.9784490574910086
-0.9974221132361681
-0.983002590869847
-0.909387134578628
-0.8835837787652111
-0.817557544772056
-0.8380484449768282
-1.0080470244534576
-1.0444752914841637
-0.9996988799255874
-0.9898328909381043
-0.9670652240439129
-0.9276012680939811
-0.8759945564671473
-0.807691555784573
-0.9230477347151429
-1.0513055915524212
-1.042957447024551
-0.9966631910063618
-1.0034934910746192
-0.9921096576275236
-0.9351904903920449
-0.8881373121440493
-0.8463965895046984
-0.8350127560576027
-1.0368860691861
-1.0824214029744827
-1.0497877470928085
-1.0497877470928085
-1.0437163692543574
-0.9936275020871362
-0.9480921682987534
-0.8843427009950174
-0.8190753892316687
-0.9587170795160428
-1.0619305027697106
-1.0922873919619658
-1.0611715805399042
-1.0391628358755192
-1.0232254690495852
-0.9784490574910086
-0.9124228234978535
-0.8820659343055983
-0.8190753892316687
-0.995145346546749
-1.068760802837968
-1.0672429583783551
-1.0421985247947447
-1.008805946683264
-0.9898328909381043
-0.9435386349199152
-0.8805480898459855
-0.8418430561258601
-1.0300557691178425
-1.0702786472975807
-1.0634483472293232
-0.9981810354659746
-1.0034934910746192
-0.9427797126901087
-0.8949676122123068
-0.8501912006537303
-0.7788525110519305
-0.9685830685035257
-1.0421985247947447
-1.0596537360802913
-1.0156362467515214
-1.0194308579005533
-0.9716187574227513
-0.9389851015410768
-0.867646411939277
-0.7849238888903816
-0.8729588675479217
-1.0421985247947447
-1.0573769693908723
-1.0186719356707468
-1.020948702360166
-0.9822436686400405
-0.9640295351246875
-0.8987622233613387
-0.8304592226787644
-0.8205932336912815
-1.0012167243852002
-1.0664840361485488
-1.0323325358072617
-0.9905918131679108
-0.9974221132361681
-0.9647884573544938
-0.91318174572766
-0.8259056892999261
-0.9124228234978535
-1.0421985247947447
-1.0649661916889361
-0.9913507353977171
-1.0148773245217149
-0.995145346546749
-0.931395879243013
-0.8646107230200516
-0.8198343114614751
-0.8661285674796643
-1.046752058173583
-1.0824214029744827
-1.0619305027697106
-1.0482699026331956
-1.0315736135774554
-0.9625116906650747
-0.9480921682987534
-1.0953230808811913
-1.1112604477071253
-1.0376449914159063
-1.0118416356024895
-0.9959042687765555
-0.9291191125535939
-0.8661285674796643
-0.8038969446355411
-0.7173798104376137
-0.6794336989472947
-0.5762202756936269
-0.7507723885490944
-0.9640295351246875
-0.9943864243169427
-0.9534046239073981
-0.9344315681622386
-0.9124228234978535
-0.8858605454546302
-0.8289413782191517
-0.7826471222009624
-0.9617527684352682
-1.0270200801986171
-1.0217076245899723
-0.9761722908015895
-0.9663063018141066
-0.9230477347151429
-0.8942086899825004
-0.8388073672066346
-0.8653696452498579
-1.0300557691178425
-1.0505466693226149
-1.046752058173583
-1.0543412804716468
-1.0611715805399042
-1.0262611579688106
-0.9609938462054619
-0.9116639012680472
-1.0292968468880361
-1.1469297925080253
-1.1939829707560208
-1.1575547037253144
-1.1294745812224785
-1.1234032033840273
-1.0975998475706104
-1.011082713372683
-0.9685830685035257
-1.110501525477319
-1.1901883596069889
-1.2258577044078889
-1.1681796149426038
-1.1651439260233782
-1.1537600925762825
-1.0824214029744827
-1.0292968468880361
-0.9875561242486852
-1.172733148321442
-1.2213041710290504
-1.2015721930540846
-1.182599137308925
-1.162108237104153
-1.1165729033157699
-1.0717964917571936
-1.0042524133044257
-1.122644281154221
-1.2053668042031165
-1.218268482109825
-1.1461708702782187
-1.1598314704147337
-1.1256799700734466
-1.068760802837968
-1.1158139810859635
-1.222063093258857
-1.19625973744544
-1.0915284697321594
-1.110501525477319
-1.0535823582418404
-1.0095648689130703
-0.9071103678892088
-0.8365306005172155
-0.7947898778778645
-0.699924599152067
-0.6953710657732286
-1.0201897801303597
-1.0543412804716468
-1.0414396025649382
-1.008805946683264
-1.0262611579688106
-0.989073968708298
-0.8805480898459855
-0.7780935888221242
-0.6634963321213606
-0.919253123566111
-1.020948702360166
-1.0513055915524212
-0.9329137237026258
-0.9480921682987534
-0.9556813905968172
-0.9063514456594025
-0.8539858118027622
-0.8539858118027622
-1.0520645137822275
-1.0884927808129339
-1.0839392474340956
-1.0604126583100977
-1.0824214029744827
-1.0080470244534576
-0.9465743238391406
-0.8684053341690835
-0.9647884573544938
-1.1241621256138337
-1.1598314704147337
-1.1234032033840273
-1.0953230808811913
-1.0824214029744827
-1.0459931359437766
-0.9678241462737194
-0.9101460568084344
-0.9625116906650747
-1.1438941035887997
-1.1712153038618294
-1.1074658365580934
-1.094564158651385
-1.0368860691861
-0.9974221132361681
-0.9587170795160428
-0.9177352791064982
-0.9260834236343684
-1.100635536489836
-1.1666617704829911
-1.132510270141704
-1.0938052364215785
-1.0877338585831275
-1.0459931359437766
-1.008805946683264
-0.9283601903237876
-0.9776901352612023
-1.1241621256138337
-1.1165729033157699
-1.1234032033840273
-1.0915284697321594
-1.072555413987
-1.034609302496681
-0.9716187574227513
-0.9442975571497215
-1.1218853589244147
-1.156795781495508
-1.1530011703464762
-1.1135372143965445
-1.0938052364215785
-0.9594760017458491
-0.8904140788334685
-1.0831803252042893
-1.1454119480484124
-1.0824214029744827
-1.0528234360120339
-1.0414396025649382
-0.9814847464102342
-0.9541635461372044
-0.8744767120075345
-0.7985844890268964
-0.7553259219279327
-0.6771569322578755
-0.7925131111884454
-1.0163951689813278
-1.058894813850485
-1.017154091211134
-1.0103237911428766
-0.995145346546749
-0.9382261793112705
-0.9086282123488216
-0.8152807780826368
-0.8737177897777281
-1.0361271469562936
-1.1097426032475126
-1.0695197250677744
-1.0399217581053255
-1.0217076245899723
-0.9647884573544938
-0.9230477347151429
-0.8570215007219878
-1.0368860691861
-1.1211264366946083
-1.1317513479118977
-1.0793857140552574
-1.0854570918937083
-1.0292968468880361
-0.9594760017458491
-0.8904140788334685
-0.8471555117345048
-1.0771089473658382
-1.1454119480484124
-1.1476887147378316
-1.1158139810859635
-1.1135372143965445
-1.0824214029744827
-1.0338503802668744
-0.9587170795160428
-0.9222888124853365
-1.1150550588561572
-1.1879115929175696
-1.1552779370358954
-1.1074658365580934
-1.110501525477319
-1.062689424999517
-1.0300557691178425
-0.9663063018141066
-1.0057702577640384
-1.1400994924397678
-1.164385003793572
-1.126438892303253
-1.0877338585831275
-1.0960820031109977
-1.0475109804033893
-0.9822436686400405
-0.945056479379528
-1.1059479920984807
-1.154519014806089
-1.1234032033840273
-1.0991176920302232
-1.098358769800417
-1.0444752914841637
-1.0034934910746192
-0.9549224683670109
-0.8790302453863728
-1.0884927808129339
-1.1734920705512486
-1.122644281154221
-1.0892517030427402
-1.0998766142600296
-1.0664840361485488
-0.9989399576957809
-0.9389851015410768
-0.861575034100826
-1.0839392474340956
-1.148447636967638
-1.1461708702782187
-1.1013944587196423
-1.090769547502353
-1.0384039136457128
-0.9837615130996533
-0.9238066569449492
-0.8486733561941175
-1.0292968468880361
-1.1112604477071253
-1.106706914328287
-1.0573769693908723
-1.0573769693908723
-1.0277790024284235
-0.9708598351929448
-0.8820659343055983
-0.8592982674114069
-1.0566180471610658
-1.1051890698686742
-1.0573769693908723
-1.0201897801303597
-1.0217076245899723
-0.9663063018141066
-0.925324501404562
-0.8274235337595389
-0.7667097553750284
-1.0004578021553938
-1.0816624807446764
-1.0763500251360318
-1.024743313509198
-1.0042524133044257
-0.969341990733332
-0.909387134578628
-0.8327359893681836
-0.759879455306771
-0.9351904903920449
-1.0459931359437766
-1.074832180676419
-1.0057702577640384
-0.9989399576957809
-0.9625116906650747
-0.9238066569449492
-0.8448787450450856
-0.7591205330769646
-0.8790302453863728
-1.0338503802668744
-1.0414396025649382
-0.9814847464102342
-0.9594760017458491
-0.9405029460006896
-0.8896551566036621
-0.8441198228152793
-0.759879455306771
-0.973136601882364
-1.0270200801986171
-0.9852793575592661
-0.9587170795160428
-0.9473332460689471
-0.91318174572766
-0.8608161118710197
-0.8638518007902452
-0.9981810354659746
-0.9966631910063618
-0.9169763568766919
-0.909387134578628
-0.8957265344421131
-0.8479144339643112
-0.791754188958639
-0.6718444766492309
-0.6134074649541396
-0.5640775200167247
-0.8699231786286962
-0.9723776796525576
-0.9708598351929448
-0.9268423458641748
-0.9109049790382407
-0.8646107230200516
-0.8486733561941175
-0.7424242440212242
-0.7044781325309052
-0.963270612894881
-1.017154091211134
-1.0224665468197787
-0.95719923505643
-0.9670652240439129
-0.9222888124853365
-0.8684053341690835
-0.7773346665923178
-0.7985844890268964
-1.0148773245217149
-1.0619305027697106
-1.033091458037068
-0.9799669019506214
-0.9723776796525576
-0.9541635461372044
-0.887378389914243
-0.8585393451816005
-1.0376449914159063
-1.08090355851487
-1.0482699026331956
-0.9860382797890724
-1.0118416356024895
-0.9594760017458491
-0.9002800678209515
-0.8471555117345048
-1.0300557691178425
-1.1271978145330592
-1.1848759039983443
-1.1408584146695742
-1.1196085922349954
-1.0839392474340956
-1.0437163692543574
-0.9807258241804279
-1.0224665468197787
-1.2030900375136975
-1.2387593823145973
-1.218268482109825
-1.2068846486627294
-1.1719742260916357
-1.1378227257503486
-1.0763500251360318
-1.005011335534232
-1.2015721930540846
-1.2630448936684016
-1.2630448936684016
-1.224339859948276
-1.2076435708925357
-1.1636260815637656
-1.1492065591974443
-1.1051890698686742
-1.0353682247264873
-1.2167506376502122
-1.2789822604943355
-1.2812590271837545
-1.2190274043396314
-1.2137149487309866
-1.192465126296408
-1.1461708702782187
-1.0892517030427402
-1.1279567367628656
-1.2577324380597568
-1.3070623829971715
-1.1856348262281506
-1.1788045261598932
-1.1469297925080253
-1.106706914328287
-1.0702786472975807
-1.0141184022919085
-1.1917062040666015
-1.2751876493453036
-1.246348604612661
-1.2425539934636292
-1.2129560265011803
-1.1719742260916357
-1.1355459590609296
-1.0657251139187425
-1.0156362467515214
-1.1803223706195058
-1.272151960426078
-1.2812590271837545
-1.2326880044761461
-1.2319290822463398
-1.1917062040666015
-1.134787036831123
-1.0801446362850637
-1.0179130134409404
-1.0672429583783551
-1.24027722677421
-1.2357236933953717
-1.208402493122342
-1.1757688372406676
-1.1514833258868635
-1.132510270141704
-1.0513055915524212
-0.963270612894881
-0.9579581572862363
-1.1408584146695742
-1.1856348262281506
-1.1734920705512486
-1.1355459590609296
-1.1036712254090615
-1.0649661916889361
-1.0186719356707468
-0.9321548014728195
-1.011082713372683
-1.1469297925080253
-1.1476887147378316
-1.112778292166738
-1.1021533809494488
-1.0695197250677744
-1.0163951689813278
-0.9458154016093343
-0.8949676122123068
-0.9260834236343684
-1.1074658365580934
-1.1408584146695742
-1.118849670005189
-1.0938052364215785
-1.0581358916206787
-1.024743313509198
-0.9389851015410768
-0.9207709680257238
-0.8547447340325686
-1.0239843912793916
-1.1234032033840273
-1.1044301476388678
-1.0141184022919085
-0.8350127560576027
-0.8372895227470218
-0.8691642563988898
-0.8319770671383772
-0.7841649666605752
-0.861575034100826
-1.0384039136457128
-1.0581358916206787
-1.0126005578322959
-1.0012167243852002
-0.9898328909381043
-0.9306369570132067
-0.8911730010632749
-0.7947898778778645
-0.931395879243013
-1.0292968468880361
-1.0497877470928085
-0.9754133685717832
-0.9617527684352682
-0.9139406679574663
-0.8691642563988898
-0.8145218558528304
-0.728004721654903
-0.9321548014728195
-1.0361271469562936
-1.0497877470928085
-1.0042524133044257
-1.0012167243852002
-0.9420207904603024
-0.8463965895046984
-0.801620177946122
-0.7188976548972265
-0.9329137237026258
-1.0118416356024895
-1.0459931359437766
-0.9837615130996533
-0.9708598351929448
-0.9177352791064982
-0.881307012075792
-0.8137629336230241
-0.7811292777413497
-0.9792079797208151
-1.0368860691861
-1.033091458037068
-0.9663063018141066
-0.9518867794477853
-0.9321548014728195
-0.8790302453863728
-0.8274235337595389
-0.9116639012680472
-1.0232254690495852
-1.0497877470928085
-0.9617527684352682
-0.9503689349881725
-0.941261868230496
-0.8858605454546302
-0.8259056892999261
-0.7363528661827732
-0.9541635461372044
-1.042957447024551
-1.0497877470928085
-1.0034934910746192
-1.0012167243852002
-0.9579581572862363
-0.9109049790382407
-0.8372895227470218
-0.8099683224739921
-1.0201897801303597
-1.0877338585831275
-1.0816624807446764
-1.042957447024551
-1.0315736135774554
-0.9936275020871362
-0.931395879243013
-0.8744767120075345
-0.7834060444307688
-1.0141184022919085
-1.0975998475706104
-1.0816624807446764
-1.0285379246582298
-1.0368860691861
-1.0065291799938447
-0.9344315681622386
-0.9017979122805642
-0.893449767752694
-1.0475109804033893
-1.0824214029744827
-1.0475109804033893
-1.0217076245899723
-1.0186719356707468
-0.9442975571497215
-0.8744767120075345
-0.7841649666605752
-0.9579581572862363
-1.0771089473658382
-1.08090355851487
-1.0019756466150065
-1.0065291799938447
-0.9814847464102342
-0.9458154016093343
-0.8729588675479217
-0.7894774222692199
-0.9602349239756556
-1.0862160141235147
-1.0900106252725466
-1.0528234360120339
-1.0292968468880361
-1.0034934910746192
-0.963270612894881
-0.9025568345103706
-0.8228700003807006
-0.9458154016093343
-1.1158139810859635
-1.1211264366946083
-1.0801446362850637
-1.0915284697321594
-1.0361271469562936
-0.9792079797208151
-0.9465743238391406
-0.8668874897094707
-1.0163951689813278
-1.110501525477319
-1.1287156589926721
-1.0459931359437766
-1.0566180471610658
-1.0368860691861
-0.9928685798573299
-0.9071103678892088
-0.8532268895729559
-1.0535823582418404
-1.0960820031109977
-1.090769547502353
-1.04523421371397
-1.0315736135774554
-1.0194308579005533
-0.9048336011997897
-0.8972443789017259
-0.8388073672066346
-1.0900106252725466
-1.1203675144648018
-1.0915284697321594
-1.04523421371397
-1.0482699026331956
-1.0156362467515214
-0.9564403128266237
-0.909387134578628
-0.8342538338277963
-1.0596537360802913
-1.1431351813589934
-1.106706914328287
-1.0786267918254508
-1.0778678695956445
-1.0566180471610658
-1.0012167243852002
-0.9382261793112705
-0.849432278423924
-1.049028824863002
-1.1340281146013167
-1.1469297925080253
-1.0497877470928085
-1.0642072694591298
-1.0733143362168063
-0.9966631910063618
-0.9351904903920449
-0.9146995901872726
-1.126438892303253
-1.1454119480484124
-1.148447636967638
-1.1036712254090615
-1.110501525477319
-1.0702786472975807
-0.9959042687765555
-0.931395879243013
-0.8471555117345048
-1.08090355851487
-1.1613493148743463
-1.1719742260916357
-1.144653025818606
-1.1044301476388678
-1.0824214029744827
-1.0194308579005533
-0.941261868230496
-0.9071103678892088
-1.0179130134409404
-1.136304881290736
-1.1833580595387314
-1.1234032033840273
-1.1294745812224785
-1.0816624807446764
-1.0399217581053255
-0.9875561242486852
-0.9200120457959173
-0.8851016232248239
-1.1029123031792551
-1.1772866817002805
-1.1469297925080253
-1.106706914328287
-1.0869749363533212
-1.0513055915524212
-0.9883150464784917
-0.9473332460689471
-0.9526457016775918
-1.1150550588561572
-1.1636260815637656
-1.0892517030427402
-1.0755911029062255
-1.074832180676419
-1.0558591249312594
-0.9625116906650747
-0.9124228234978535
-0.8638518007902452
-1.058894813850485
-1.1340281146013167
-1.1203675144648018
-1.0763500251360318
-1.0657251139187425
-1.055100202701453
-1.008805946683264
-0.9465743238391406
-0.8600571896412132
-1.0649661916889361
-1.1256799700734466
-1.1165729033157699
-1.0763500251360318
-1.068760802837968
-1.071037569527387
-1.0004578021553938
-0.969341990733332
-0.899521145591145
-1.049028824863002
-1.1234032033840273
-1.106706914328287
-1.0224665468197787
-0.9996988799255874
-0.9420207904603024
-0.9283601903237876
-0.8592982674114069
-0.8767534786969536
-1.0186719356707468
-1.0680018806081617
-1.0141184022919085
-0.9754133685717832
-0.95719923505643
-0.9230477347151429
-0.8403252116662474
-0.7705043665240603
-0.8031380224057347
-1.033091458037068
-1.0649661916889361
-1.0080470244534576
-0.9397440237708833
-0.8304592226787644
-0.6088539315753012
-0.41988229635351243
-0.32501701762771484
-0.11783124889057289
-0.13149184902708774
-0.08367974854928577
0.01953367470438202
0.15689859829933694
0.16752350951662626
0.2016750098579134
0.2532817214847473
0.36104867811725333
0.47944054596704877
0.30564735534138754
0.060515475113926576
-0.08367974854928577
-0.14211676024437708
-0.3462668400622935
-0.45099810777557403
-0.49805128602356963
-0.5033637416322143
-0.4790782302784101
-0.7545669996981264
-0.9169763568766919
-1.0543412804716468
-1.0680018806081617
-1.1059479920984807
-1.1423762591291868
-1.0953230808811913
-1.0664840361485488
-0.9837615130996533
-1.0740732584466126
-1.1886705151473762
-1.182599137308925
-1.0611715805399042
-0.9746544463419767
-0.8357716782874091
-0.6392108207675564
-0.4904620637255058
-0.28707090613739583
-0.16943796051740678
-0.3857307960122253
-0.31135641749119997
-0.26658000593262354
-0.10265280429444529
-0.026001659084000827
0.09314913099560095
0.24721034364629624
0.3997537118373788
0.5348418687429145
0.3906466450797022
0.08176529754850524
0.008908763487092687
-0.02903734800322635
-0.03814441476090292
-0.040421181450322065
-0.08367974854928577
-0.13604538240592604
-0.12466154895883032
-0.23091066113172362
-0.4730068524399591
-0.5397920086629205
-0.5314438641350504
-0.5337206308244695
-0.6111306982647204
-0.6255502206310416
-0.5671132089359503
-0.578497042383046
-0.6209966872522034
-0.9268423458641748
-1.0717964917571936
-1.136304881290736
-1.1423762591291868
-1.0884927808129339
-1.0255022357390042
-0.9685830685035257
-0.8600571896412132
-0.6953710657732286
-0.6088539315753012
-0.7963077223374773
-0.705995976990518
-0.5413098531225333
-0.28024060606913836
-0.12390262672902394
0.08176529754850524
0.19180902087043045
0.3193079554779024
0.4968957572525955
0.4202446120421511
0.07417607525044143
-0.026760581313807208
-0.12086693780979842
-0.247606950187464
-0.37662372925454873
-0.41608768520448053
-0.4805960747380229
-0.5132297306196972
-0.7386296328721923
-1.0118416356024895
-1.2068846486627294
-1.3085802274567844
-1.3981330505739373
-1.4869269514612837
-1.5757208523486304
-1.552953185454439
-1.5225962962621837
-1.5279087518708283
-1.7586211097319682
-1.8269241104145424
-1.7836655433155786
-1.6721039755340408
-1.6022831303918537
-1.4846501847718647
-1.3692940058412948
-1.2258577044078889
-0.9534046239073981
-0.8107272447037985
-0.6892996879347776
-0.5777381201532397
-0.3576506735093892
-0.14970598254244089
0.0240872080832203
0.2054696210069453
0.318549033248096
0.4164500008931192
0.531806179823689
0.004355230108254403
-0.30832072857197446
-0.39559678499970824
-0.35157929567093815
-0.3895254071612572
-0.41153415182564224
-0.41077522959583584
-0.3864897182420317
-0.30149042850371705
-0.4646587079120889
-0.680192621177101
-0.7500134663192881
-0.7052370547607116
-0.6726033988790372
-0.6923353768540031
-0.5997468648176246
-0.5200600306879547
-0.4297482853409954
-0.636175131848331
-0.7765757443625114
-0.8183164670018623
-0.7909952667288326
-0.791754188958639
-0.7963077223374773
-0.7553259219279327
-0.6688087877300053
-0.6240323761714288
-0.8729588675479217
-0.9587170795160428
-0.9602349239756556
-0.9405029460006896
-0.9336726459324322
-0.9154585124170791
-0.8668874897094707
-0.7750578999028986
-0.7044781325309052
-0.9503689349881725
-1.062689424999517
-1.0315736135774554
-0.9921096576275236
-0.9943864243169427
-0.9647884573544938
-0.9101460568084344
-0.8342538338277963
-0.7553259219279327
-0.9784490574910086
-1.0733143362168063
-1.0900106252725466
-1.0255022357390042
-1.0444752914841637
-0.989073968708298
-0.9329137237026258
-0.8699231786286962
-0.8949676122123068
-1.0877338585831275
-1.1234032033840273
-1.0558591249312594
-1.0649661916889361
-1.0217076245899723
-0.9640295351246875
-0.9222888124853365
-0.8190753892316687
-0.9359494126218514
-1.106706914328287
-1.1476887147378316
-1.084698169663902
-1.1165729033157699
-1.0680018806081617
-1.046752058173583
-0.9336726459324322
-0.823628922610507
-0.8972443789017259
-1.1332691923715104
-1.110501525477319
-1.0922873919619658
-1.0406806803351318
-1.017154091211134
-0.9716187574227513
-0.8866194676844366
-0.8304592226787644
-0.9268423458641748
-1.1013944587196423
-1.164385003793572
-1.1173318255455764
-1.1013944587196423
-1.0482699026331956
-0.969341990733332
-0.8987622233613387
-0.8167986225422496
-1.0262611579688106
-1.0816624807446764
-1.0922873919619658
-1.0232254690495852
-1.0315736135774554
-0.9845204353294598
-0.9473332460689471
-0.8577804229517941
-0.8137629336230241
-1.0437163692543574
-1.0975998475706104
-1.084698169663902
-1.0437163692543574
-1.0255022357390042
-0.9792079797208151
-0.9389851015410768
-0.8729588675479217
-0.7940309556480581
-1.0664840361485488
-1.122644281154221
-1.1082247587878997
-1.0376449914159063
-1.0224665468197787
-0.9898328909381043
-0.9306369570132067
-0.8334949115979899
-0.7879595778096071
-1.0141184022919085
-1.0642072694591298
-1.030814691347649
-1.005011335534232
-0.9260834236343684
-0.9268423458641748
-0.8851016232248239
-0.8069326335547666
-0.7287636438847094
-0.9875561242486852
-1.04523421371397
-0.9974221132361681
-0.9701009129631385
-0.969341990733332
-0.9260834236343684
-0.8721999453181154
-0.7773346665923178
-0.8547447340325686
-1.030814691347649
-1.0611715805399042
-0.9996988799255874
-0.9746544463419767
-0.9602349239756556
-0.9048336011997897
-0.817557544772056
-0.7742989776730922
-0.7052370547607116
-0.9966631910063618
-1.0642072694591298
-1.0232254690495852
-0.9723776796525576
-0.9503689349881725
-0.8957265344421131
-0.8448787450450856
-0.7386296328721923
-0.6733623211088436
-0.8684053341690835
-0.9625116906650747
-0.9230477347151429
-0.8221110781508942
-0.8281824559893453
-0.817557544772056
-0.7568437663875455
-0.6839872323261329
-0.6126485427243331
-0.6923353768540031
-0.887378389914243
-0.9276012680939811
-0.8585393451816005
-0.8570215007219878
-0.8403252116662474
-0.8023791001759283
-0.7409063995616115
-0.636175131848331
-0.7872006555798007
-0.9268423458641748
-0.9017979122805642
-0.839566289436441
-0.8228700003807006
-0.7955488001076709
-0.7287636438847094
-0.648317887525233
-0.5807738090724651
-0.6824693878665202
-0.871441023088309
-0.9260834236343684
-0.829700300448958
-0.7932720334182518
-0.7955488001076709
-0.7424242440212242
-0.7014424436116797
-0.6255502206310416
-0.5898808758301417
-0.8721999453181154
-0.963270612894881
-0.9124228234978535
-0.7727811332134795
-0.8061737113249602
-0.7773346665923178
-0.7226922660462584
-0.6460411208358139
-0.5633185977869184
-0.8365306005172155
-0.8926908455228877
-0.903315756740177
-0.8517090451133431
-0.7864417333499943
-0.7052370547607116
-0.5913987202897545
-0.5488990754205971
-0.5397920086629205
-0.7568437663875455
-0.8304592226787644
-0.7583616108471583
-0.7128262770587754
-0.7264868771952903
-0.7234511882760647
-0.648317887525233
-0.5572472199484674
-0.7591205330769646
-0.8820659343055983
-0.8737177897777281
-0.8228700003807006
-0.8342538338277963
-0.8046558668653475
-0.7568437663875455
-0.6870229212453585
-0.6346572873887182
-0.8805480898459855
-0.9966631910063618
-1.017154091211134
-0.9010389900507578
-0.8949676122123068
-0.8691642563988898
-0.7803703555115433
-0.7295225661145158
-0.7371117884125796
-0.9822436686400405
-1.0080470244534576
-0.9723776796525576
-0.9078692901190153
-0.8843427009950174
-0.8334949115979899
-0.7317993328039349
-0.6839872323261329
-0.8137629336230241
-0.9663063018141066
-0.973136601882364
-0.7818881999711561
-0.6574249542829096
-0.5967111758983992
-0.604300398196463
-0.5253724862965994
-0.540550930892727
-0.8350127560576027
-0.9943864243169427
-1.0323325358072617
-1.0535823582418404
-1.0642072694591298
-1.0133594800621022
-0.9663063018141066
-0.8851016232248239
-0.8243878448403134
-1.0778678695956445
-1.1651439260233782
-1.1469297925080253
-1.0922873919619658
-1.0778678695956445
-1.046752058173583
-0.9738955241121704
-0.8972443789017259
-0.8820659343055983
-1.1082247587878997
-1.1560368592657018
-1.1575547037253144
-1.0816624807446764
-1.0938052364215785
-1.071037569527387
-0.9943864243169427
-0.9245655791747557
-0.8926908455228877
-1.1271978145330592
-1.186393748457957
-1.1734920705512486
-1.1165729033157699
-1.1165729033157699
-1.0755911029062255
-1.0414396025649382
-0.8972443789017259
-0.9966631910063618
-1.134787036831123
-1.144653025818606
-1.1120193699369316
-1.1120193699369316
-1.0755911029062255
-1.0126005578322959
-0.9458154016093343
-1.1408584146695742
-1.2015721930540846
-1.0634483472293232
-1.0702786472975807
-1.08090355851487
-1.0262611579688106
-0.9655473795843001
-0.8638518007902452
-0.7720222109836731
-0.636175131848331
-0.7735400554432859
-1.007288102223651
-1.049028824863002
-1.0065291799938447
-0.9776901352612023
-0.9473332460689471
-0.8942086899825004
-0.8205932336912815
-0.7742989776730922
-0.9397440237708833
-1.0444752914841637
-1.0702786472975807
-1.0012167243852002
-1.0080470244534576
-0.9625116906650747
-0.9283601903237876
-0.861575034100826
-0.9268423458641748
-1.0444752914841637
-1.1021533809494488
-1.0497877470928085
-1.0437163692543574
-1.0179130134409404
-0.9769312130313959
-0.9071103678892088
-0.8638518007902452
-1.0315736135774554
-1.134787036831123
-1.1575547037253144
-1.122644281154221
-1.0975998475706104
-1.0740732584466126
-1.0065291799938447
-0.941261868230496
-0.9146995901872726
-1.0991176920302232
-1.1848759039983443
-1.1992954263646656
-1.1400994924397678
-1.1294745812224785
-1.0938052364215785
-1.033091458037068
-0.9291191125535939
-0.8843427009950174
-1.0421985247947447
-1.0960820031109977
-1.1378227257503486
-1.0315736135774554
-1.033091458037068
-1.0126005578322959
-0.9526457016775918
-0.8957265344421131
-0.8145218558528304
-0.9298780347834003
-1.0270200801986171
-0.9784490574910086
-0.9746544463419767
-0.9420207904603024
-0.8881373121440493
-0.8403252116662474
-0.7712632887538667
-0.668049865500199
-0.871441023088309
-0.9663063018141066
-0.9989399576957809
-0.951127857217979
-0.9367083348516577
-0.9283601903237876
-0.861575034100826
-0.7902363444990262
-0.7355939439529668
-0.696129988003035
-0.9139406679574663
-0.9784490574910086
-0.9701009129631385
-0.9071103678892088
-0.8653696452498579
-0.8130040113932177
-0.765950833145222
-0.6642552543511671
-0.5602829088676928
-0.6619784876617479
-0.8418430561258601
-0.8851016232248239
-0.8183164670018623
-0.7682275998346412
-0.7158619659780009
-0.610371776034914
-0.4646587079120889
-0.3978735516891274
-0.5602829088676928
-0.6786747767174883
-0.7188976548972265
-0.5648364422465312
-0.40015031837854653
-0.381177262633387
-0.36144528465842113
-0.32957055100655314
-0.30452611742294255
-0.4859085303466676
-0.6657730988107798
-0.6991656769222605
-0.6513535764444586
-0.6050593204262693
-0.6179609983329778
-0.5876041091407226
-0.4752836191293782
-0.35309714013055093
-0.4578284078438315
-0.6892996879347776
-0.696129988003035
-0.6505946542146522
-0.5883630313705289
-0.5504169198802099
-0.46238194122266973
-0.33260623992577865
-0.23925880565959382
-0.35916851796900195
-0.5815327313022716
-0.6179609983329778
-0.5587650644080802
-0.51474757507931
-0.5109529639302781
-0.42671259642176984
-0.32729378431713396
-0.22559820552307897
-0.476801463588991
-0.5754613534638204
-0.5397920086629205
-0.482872841427442
-0.5223367973773738
-0.5132297306196972
-0.4517570300053804
-0.31818671755945743
-0.19751808302024287
-0.4654176301418953
-0.5838094979916907
-0.5792559646128524
-0.5701488978551759
-0.5959522536685927
-0.5777381201532397
-0.5048815860918271
-0.34854360675171264
-0.34854360675171264
-0.5640775200167247
-0.6452821986060076
-0.6756390877982628
-0.6930942990838095
-0.7469777774000625
-0.7720222109836731
-0.7188976548972265
-0.6771569322578755
-0.7029602880712924
-0.9943864243169427
-0.9382261793112705
-0.909387134578628
-0.8881373121440493
-0.9207709680257238
-0.8828248565354047
-0.8259056892999261
-0.7355939439529668
-0.7386296328721923
-0.9974221132361681
-1.0497877470928085
-0.9959042687765555
-0.8630928785604388
-0.9139406679574663
-0.8949676122123068
-0.8312181449085708
-0.7264868771952903
-0.9336726459324322
-1.098358769800417
-1.0763500251360318
-1.0042524133044257
-0.9913507353977171
-0.9655473795843001
-0.91318174572766
-0.7887185000394135
-0.7727811332134795
-1.0133594800621022
-1.1180907477753828
-1.106706914328287
-1.0619305027697106
-1.0505466693226149
-0.9852793575592661
-0.9283601903237876
-0.839566289436441
-0.9344315681622386
-1.134787036831123
-1.162108237104153
-1.0619305027697106
-0.9989399576957809
-1.0581358916206787
-1.0004578021553938
-0.8972443789017259
-0.8205932336912815
-0.9996988799255874
-1.1021533809494488
-1.0513055915524212
-1.0292968468880361
-1.0232254690495852
-1.005011335534232
-0.9556813905968172
-0.881307012075792
-0.9329137237026258
-1.138581647980155
-1.1492065591974443
-1.1165729033157699
-1.0824214029744827
-1.0497877470928085
-0.9807258241804279
-0.9405029460006896
-0.8737177897777281
-1.1431351813589934
-1.1871526706877633
-1.1241621256138337
-1.0292968468880361
-0.969341990733332
-0.925324501404562
-0.9010389900507578
-0.8737177897777281
-0.8957265344421131
-1.1120193699369316
-1.1408584146695742
-1.1249210478436402
-1.1203675144648018
-1.1241621256138337
-1.0672429583783551
-0.9701009129631385
-0.9184942013363045
-0.9784490574910086
-1.170456381632023
-1.1309924256820911
-1.0611715805399042
-1.0657251139187425
-1.0475109804033893
-1.034609302496681
-0.9746544463419767
-0.8706821008585026
-0.9996988799255874
-1.170456381632023
-1.1901883596069889
-1.0839392474340956
-1.0421985247947447
-0.9966631910063618
-0.95719923505643
-0.8805480898459855
-0.8866194676844366
-1.046752058173583
-1.030814691347649
-1.011082713372683
-0.995145346546749
-0.9905918131679108
-0.9306369570132067
-0.8949676122123068
-0.7993434112567028
-0.9207709680257238
-1.118849670005189
-1.138581647980155
-1.1021533809494488
-1.0786267918254508
-1.0475109804033893
-0.9792079797208151
-0.8456376672748921
-0.7196565771270328
-0.8744767120075345
-1.0224665468197787
-1.0733143362168063
-0.9928685798573299
-0.9845204353294598
-0.9503689349881725
-0.9298780347834003
-0.8122450891634113
-0.6824693878665202
-0.9017979122805642
-0.973136601882364
-0.9860382797890724
-0.9594760017458491
-0.9389851015410768
-0.9086282123488216
-0.8532268895729559
-0.7940309556480581
-0.9086282123488216
-1.0270200801986171
-1.0459931359437766
-0.9807258241804279
-1.008805946683264
-0.9579581572862363
-0.8904140788334685
-0.8167986225422496
-0.7333171772635477
-0.8843427009950174
-0.9784490574910086
-0.9966631910063618
-0.9480921682987534
-0.9579581572862363
-0.945056479379528
-0.8828248565354047
-0.8471555117345048
-0.765950833145222
-0.8547447340325686
-0.9943864243169427
-1.0680018806081617
-1.0300557691178425
-1.0285379246582298
-0.989073968708298
-0.9473332460689471
-0.9207709680257238
-0.8372895227470218
-0.839566289436441
-1.034609302496681
-1.0505466693226149
-1.0019756466150065
-1.0148773245217149
-1.020948702360166
-0.9723776796525576
-0.8517090451133431
-0.7181387326674201
-0.899521145591145
-0.9943864243169427
-0.9959042687765555
-0.9101460568084344
-0.8896551566036621
-0.8418430561258601
-0.7636740664558029
-0.7135851992885818
-0.6232734539416225
-0.8008612557163156
-0.9435386349199152
-0.9647884573544938
-0.9184942013363045
-0.9078692901190153
-0.881307012075792
-0.7864417333499943
-0.6885407657049712
-0.6149253094137523
-0.6551481875934905
-0.8486733561941175
-0.8888962343738558
-0.8524679673431494
-0.8319770671383772
-0.8251467670701198
-0.7469777774000625
-0.6505946542146522
-0.5625596755571121
-0.5041226638620206
-0.7864417333499943
-0.8312181449085708
-0.8092094002441858
-0.743942088480837
-0.7583616108471583
-0.699924599152067
-0.6058182426560758
-0.5276492529860185
-0.6718444766492309
-0.7834060444307688
-0.7834060444307688
-0.7302814883443222
-0.712067354828969
-0.6855050767857457
-0.6172020761031715
-0.5511758421100164
-0.4866674525764739
-0.7257279549654839
-0.8350127560576027
-0.8426019783556665
-0.7317993328039349
-0.6619784876617479
-0.5359973975138886
-0.5375152419735014
-0.47831930804860373
-0.4244358297323507
-0.6323805206992991
-0.7135851992885818
-0.7522902330087072
-0.7173798104376137
-0.7287636438847094
-0.7029602880712924
-0.6498357319848458
-0.6073360871156884
-0.5291670974456313
-0.7029602880712924
-0.8388073672066346
-0.8471555117345048
-0.7553259219279327
-0.7037192103010989
-0.6187199205627842
-0.59443440920898
-0.5481401531907908
-0.4638997856822825
-0.6650141765809734
-0.791754188958639
-0.7925131111884454
-0.737870710642386
-0.7044781325309052
-0.6179609983329778
-0.5504169198802099
-0.4942566748745377
-0.546622308731178
-0.7295225661145158
-0.7879595778096071
-0.7317993328039349
-0.6953710657732286
-0.705995976990518
-0.6672909432703925
-0.5936754869791736
-0.498810208253376
-0.5261314085264057
-0.737870710642386
-0.7735400554432859
-0.7545669996981264
-0.7090316659097435
-0.7090316659097435
-0.6634963321213606
-0.5891219536003354
-0.5443455420417589
-0.5139886528495037
-0.7211744215866456
-0.705995976990518
-0.6892996879347776
-0.6088539315753012
-0.6118896204945268
-0.5876041091407226
-0.5860862646811098
-0.5921576425195608
-0.6012647092772374
-0.8221110781508942
-0.919253123566111
-0.9769312130313959
-0.8964854566719196
-0.8539858118027622
-0.8471555117345048
-0.8008612557163156
-0.6991656769222605
-0.6194788427925906
-0.7993434112567028
-0.8980033011315323
-0.9101460568084344
-0.8706821008585026
-0.8896551566036621
-0.8797891676161792
-0.8130040113932177
-0.7530491552385136
-0.7302814883443222
-0.9678241462737194
-1.008805946683264
-1.008805946683264
-0.9496100127583662
-0.9291191125535939
-0.8380484449768282
-0.7409063995616115
-0.6559071098232968
-0.6247912984012353
-0.8623339563306324
-0.9534046239073981
-0.9822436686400405
-0.919253123566111
-0.9086282123488216
-0.8721999453181154
-0.801620177946122
-0.7613972997663838
-0.7052370547607116
-0.8319770671383772
-0.9480921682987534
-0.9609938462054619
-0.9025568345103706
-0.8737177897777281
-0.8524679673431494
-0.807691555784573
-0.7401474773318051
-0.7022013658414861
-0.9238066569449492
-0.9943864243169427
-0.9913507353977171
-0.9336726459324322
-0.91318174572766
-0.8501912006537303
-0.7773346665923178
-0.7196565771270328
-0.7082727436799371
-0.9480921682987534
-1.0406806803351318
-0.9913507353977171
-0.9534046239073981
-0.9564403128266237
-0.8532268895729559
-0.7985844890268964
-0.6703266321896181
-0.6437643541463948
-0.931395879243013
-0.989073968708298
-0.9807258241804279
-0.9283601903237876
-0.8866194676844366
-0.8942086899825004
-0.8539858118027622
-0.765950833145222
-0.6285859095502672
-0.7796114332817369
-0.9116639012680472
-0.9222888124853365
-0.8365306005172155
-0.8691642563988898
-0.8721999453181154
-0.8001023334865092
-0.6475589652954267
-0.6726033988790372
-0.9101460568084344
-0.9367083348516577
-0.9002800678209515
-0.9086282123488216
-0.887378389914243
-0.8365306005172155
-0.7317993328039349
-0.5936754869791736
-0.5041226638620206
-0.8327359893681836
-0.8205932336912815
-0.6855050767857457
-0.7166208882078073
-0.7393885551019987
-0.6953710657732286
-0.6824693878665202
-0.6574249542829096
-0.6642552543511671
-0.9921096576275236
-1.1302335034522848
-1.094564158651385
-1.0755911029062255
-1.0034934910746192
-0.9549224683670109
-0.8691642563988898
-0.7902363444990262
-0.7022013658414861
-0.6946121435434223
-0.9465743238391406
-1.0338503802668744
-0.9989399576957809
-0.9738955241121704
-0.9526457016775918
-0.925324501404562
-0.8221110781508942
-0.7636740664558029
-0.7143441215183882
-0.9716187574227513
-1.030814691347649
-0.989073968708298
-0.9427797126901087
-0.9480921682987534
-0.903315756740177
-0.8069326335547666
-0.7067548992203243
-0.769745444294254
-1.0034934910746192
-1.033091458037068
-0.9435386349199152
-0.8919319232930812
-0.8706821008585026
-0.8114861669336049
-0.7340760994933541
-0.6726033988790372
-0.6073360871156884
-0.9260834236343684
-1.0095648689130703
-0.9974221132361681
-0.9389851015410768
-0.9435386349199152
-0.9260834236343684
-0.9860382797890724
-0.9670652240439129
-0.839566289436441
-0.7849238888903816
-0.7409063995616115
-0.6832283100963266
-0.5876041091407226
-0.4684533190611208
-0.38345402932280614
-0.26430323924320437
-0.1610898159895366
-0.09582250422618786
-0.4874263748062803
-0.7257279549654839
-0.7302814883443222
-0.6156842316435587
-0.6020236315070439
-0.5769791979234332
-0.5223367973773738
-0.4403731965582847
-0.36903450695648493
-0.6779158544876819
-0.7811292777413497
-0.75380807746832
-0.7173798104376137
-0.7363528661827732
-0.6908175323943904
-0.5769791979234332
-0.44264996324770384
-0.5549704532590483
-0.7780935888221242
-0.8259056892999261
-0.7940309556480581
-0.7811292777413497
-0.712067354828969
-0.4062216962169976
-0.2832762949883639
-0.30452611742294255
-0.5488990754205971
-0.728004721654903
-0.8304592226787644
-0.8190753892316687
-0.8646107230200516
-0.8630928785604388
-0.8221110781508942
-0.7568437663875455
-0.6498357319848458
-0.8881373121440493
-0.9602349239756556
-0.9116639012680472
-0.8828248565354047
-0.9351904903920449
-0.9344315681622386
-0.8964854566719196
-0.8426019783556665
-0.9336726459324322
-1.042957447024551
-1.112778292166738
-1.068760802837968
-1.0232254690495852
-0.945056479379528
-0.8987622233613387
-0.8160397003124432
-0.7424242440212242
-0.969341990733332
-1.0824214029744827
-1.0695197250677744
-1.0103237911428766
-0.9936275020871362
-0.9784490574910086
-0.9078692901190153
-0.8463965895046984
-0.7796114332817369
-1.0148773245217149
-1.0900106252725466
-1.098358769800417
-1.0019756466150065
-1.0095648689130703
-0.9928685798573299
-0.8987622233613387
-0.8190753892316687
-0.7454599329404498
-0.9989399576957809
-1.0717964917571936
-1.0194308579005533
-0.9792079797208151
-0.9799669019506214
-0.9480921682987534
-0.9010389900507578
-0.7826471222009624
-0.7834060444307688
-1.0300557691178425
-1.094564158651385
-1.0141184022919085
-0.9678241462737194
1.0455965294026088
1.0827837186631215
1.0455965294026088
1.193586364214853
1.0827837186631215
1.2307735534753657
1.0455965294026088
1.1199709079236342
1.0827837186631215
1.193586364214853
1.0827837186631215
1.1571580971841469
1.1571580971841469
1.0827837186631215
1.193586364214853
1.0084093401420962
1.0827837186631215
1.1571580971841469
1.0827837186631215
1.193586364214853
1.193586364214853
1.0455965294026088
1.193586364214853
1.0455965294026088
1.0827837186631215
1.193586364214853
1.1199709079236342
1.193586364214853
1.1199709079236342
1.1571580971841469
1.1199709079236342
1.2307735534753657
1.193586364214853
1.0455965294026088
1.193586364214853
1.0827837186631215
1.1199709079236342
1.193586364214853
1.1199709079236342
1.1199709079236342
1.1199709079236342
1.1199709079236342
1.1199709079236342
1.1199709079236342
1.1199709079236342
1.2307735534753657
1.0827837186631215
1.2307735534753657
1.0827837186631215
1.193586364214853
1.1199709079236342
1.1199709079236342
1.1199709079236342
1.0827837186631215
1.1571580971841469
1.2679607427358783
1.0827837186631215
1.193586364214853
1.193586364214853
1.1571580971841469
1.0827837186631215
1.2307735534753657
1.1571580971841469
1.1199709079236342
1.1199709079236342
1.193586364214853
1.0827837186631215
1.193586364214853
1.193586364214853
1.1199709079236342
1.193586364214853
1.0827837186631215
1.1199709079236342
1.1199709079236342
1.193586364214853
1.193586364214853
1.1571580971841469
1.0827837186631215
1.1571580971841469
1.2307735534753657
1.1199709079236342
1.1571580971841469
1.0827837186631215
1.0827837186631215
1.193586364214853
1.1199709079236342
1.0827837186631215
1.193586364214853
1.1571580971841469
1.0827837186631215
1.193586364214853
1.1199709079236342
1.1199709079236342
1.0827837186631215
1.1199709079236342
1.0827837186631215
1.193586364214853
1.193586364214853
1.1199709079236342
1.193586364214853
1.0827837186631215
1.1571580971841469
1.1199709079236342
1.1571580971841469
1.2307735534753657
1.1571580971841469
1.0827837186631215
1.1199709079236342
1.1571580971841469
1.1199709079236342
1.0827837186631215
1.1571580971841469
1.1571580971841469
1.0455965294026088
1.2307735534753657
1.0455965294026088
1.1571580971841469
1.0827837186631215
1.0827837186631215
1.2307735534753657
1.1571580971841469
1.193586364214853
1.1199709079236342
1.193586364214853
1.0827837186631215
1.0827837186631215
1.193586364214853
1.1199709079236342
1.0827837186631215
1.0827837186631215
1.2307735534753657
1.1199709079236342
1.1199709079236342
1.1199709079236342
1.1199709079236342
1.2679607427358783
1.1199709079236342
1.1199709079236342
1.1571580971841469
1.1199709079236342
1.1199709079236342
1.193586364214853
1.193586364214853
1.0455965294026088
1.0455965294026088
1.1199709079236342
1.193586364214853
1.0455965294026088
1.193586364214853
1.1571580971841469
1.2307735534753657
1.1199709079236342
1.1199709079236342
1.1571580971841469
1.0455965294026088
1.193586364214853
1.1571580971841469
1.0827837186631215
1.0455965294026088
1.2307735534753657
1.0827837186631215
1.0455965294026088
1.1199709079236342
1.2679607427358783
1.1571580971841469
1.1199709079236342
1.1199709079236342
1.1199709079236342
1.193586364214853
1.193586364214853
1.193586364214853
1.1199709079236342
1.0827837186631215
1.193586364214853
1.0827837186631215
1.1571580971841469
1.193586364214853
1.193586364214853
1.0827837186631215
1.1571580971841469
1.0827837186631215
1.1199709079236342
1.193586364214853
1.193586364214853
1.0084093401420962
1.0827837186631215
1.1571580971841469
1.1571580971841469
1.2307735534753657
1.1199709079236342
1.2307735534753657
1.1199709079236342
1.0827837186631215
1.0455965294026088
1.0827837186631215
1.1571580971841469
1.1199709079236342
1.0827837186631215
1.0455965294026088
1.193586364214853
1.0827837186631215
1.1199709079236342
1.0827837186631215
1.0455965294026088
1.0827837186631215
1.0084093401420962
1.1199709079236342
1.193586364214853
1.0455965294026088
1.1199709079236342
1.0827837186631215
1.193586364214853
1.193586364214853
1.1199709079236342
1.0455965294026088
1.0827837186631215
1.1571580971841469
1.1571580971841469
1.2307735534753657
1.1199709079236342
1.2307735534753657
1.1571580971841469
1.1571580971841469
1.1199709079236342
1.0827837186631215
1.0455965294026088
1.0827837186631215
1.1199709079236342
1.1199709079236342
1.2307735534753657
1.1571580971841469
1.0827837186631215
1.193586364214853
1.1199709079236342
1.0455965294026088
1.0455965294026088
1.193586364214853
1.1571580971841469
1.1199709079236342
1.1199709079236342
1.0455965294026088
1.1199709079236342
1.1199709079236342
1.0455965294026088
1.1199709079236342
1.1199709079236342
1.1571580971841469
1.0455965294026088
1.0084093401420962
1.1571580971841469
1.193586364214853
1.193586364214853
1.0827837186631215
1.1199709079236342
1.193586364214853
1.2679607427358783
1.1571580971841469
1.193586364214853
1.193586364214853
1.2307735534753657
1.1571580971841469
1.1199709079236342
1.193586364214853
1.193586364214853
1.1199709079236342
1.1199709079236342
1.1571580971841469
1.2307735534753657
1.2307735534753657
1.1199709079236342
1.1199709079236342
1.0827837186631215
1.1199709079236342
1.0455965294026088
1.2307735534753657
1.0827837186631215
1.0827837186631215
1.0827837186631215
1.0827837186631215
1.1199709079236342
1.0827837186631215
1.1571580971841469
1.0827837186631215
1.0455965294026088
1.0827837186631215
1.2307735534753657
1.2307735534753657
1.1571580971841469
1.0455965294026088
1.1571580971841469
1.1199709079236342
1.0827837186631215
1.1571580971841469
1.0827837186631215
1.1199709079236342
1.0827837186631215
1.0827837186631215
1.1199709079236342
1.1571580971841469
1.0827837186631215
1.0455965294026088
1.1571580971841469
1.2679607427358783
1.193586364214853
1.0455965294026088
1.0455965294026088
1.1571580971841469
1.1199709079236342
0.9347938838508772
1.193586364214853
1.0827837186631215
1.1199709079236342
1.2307735534753657
1.1199709079236342
1.1571580971841469
1.1199709079236342
1.0827837186631215
1.193586364214853
1.1571580971841469
1.1571580971841469
1.1199709079236342
1.0084093401420962
1.0455965294026088
1.193586364214853
1.2307735534753657
1.1199709079236342
1.1199709079236342
1.193586364214853
1.193586364214853
1.193586364214853
1.0827837186631215
1.1571580971841469
1.0455965294026088
1.0455965294026088
1.0827837186631215
1.0827837186631215
1.0827837186631215
1.1199709079236342
1.193586364214853
1.1199709079236342
1.1571580971841469
1.1199709079236342
1.193586364214853
1.1571580971841469
1.1199709079236342
1.0827837186631215
1.1571580971841469
1.193586364214853
1.193586364214853
1.0455965294026088
1.0827837186631215
1.1199709079236342
1.1199709079236342
1.0455965294026088
1.1199709079236342
1.1199709079236342
1.1571580971841469
1.2307735534753657
1.1571580971841469
1.1571580971841469
1.1571580971841469
1.1199709079236342
1.0827837186631215
1.0827837186631215
1.0827837186631215
1.1571580971841469
1.1571580971841469
1.1199709079236342
1.0084093401420962
1.0827837186631215
1.1571580971841469
1.0455965294026088
1.1199709079236342
1.1199709079236342
1.1199709079236342
1.0455965294026088
1.0455965294026088
1.0827837186631215
1.193586364214853
1.1199709079236342
1.0084093401420962
0.9719810731113898
1.193586364214853
1.1571580971841469
1.0827837186631215
1.0084093401420962
1.0455965294026088
1.0455965294026088
1.1571580971841469
1.1199709079236342
1.0827837186631215
1.2307735534753657
1.0827837186631215
1.1199709079236342
1.0084093401420962
1.1571580971841469
1.0827837186631215
1.0827837186631215
1.0084093401420962
1.0455965294026088
1.0827837186631215
1.0827837186631215
1.1571580971841469
1.1571580971841469
1.0455965294026088
1.0084093401420962
1.0827837186631215
1.0827837186631215
1.0455965294026088
1.0827837186631215
1.1199709079236342
1.193586364214853
1.0084093401420962
1.0827837186631215
1.193586364214853
1.0455965294026088
1.0827837186631215
1.1199709079236342
1.0455965294026088
1.193586364214853
1.0084093401420962
1.1199709079236342
1.0455965294026088
1.2307735534753657
1.0827837186631215
1.1571580971841469
1.0827837186631215
1.1199709079236342
1.1199709079236342
1.1199709079236342
1.1199709079236342
1.193586364214853
1.1199709079236342
1.1199709079236342
1.0827837186631215
1.1571580971841469
1.0455965294026088
1.1199709079236342
1.1571580971841469
1.1571580971841469
1.0827837186631215
1.1199709079236342
1.1199709079236342
1.0455965294026088
1.193586364214853
1.0084093401420962
1.0827837186631215
1.0827837186631215
1.1571580971841469
1.1199709079236342
1.0084093401420962
1.0084093401420962
1.0084093401420962
1.1199709079236342
1.0455965294026088
1.1199709079236342
1.0455965294026088
1.1571580971841469
0.9719810731113898
1.0084093401420962
1.0084093401420962
1.0455965294026088
1.0084093401420962
1.0455965294026088
1.1571580971841469
1.0455965294026088
1.0827837186631215
1.0827837186631215
1.0827837186631215
0.8976066945903646
1.0827837186631215
1.0455965294026088
0.9719810731113898
1.0455965294026088
1.0084093401420962
1.0084093401420962
0.9347938838508772
1.1571580971841469
1.0084093401420962
1.2679607427358783
1.193586364214853
1.193586364214853
1.193586364214853
1.2307735534753657
1.1571580971841469
1.1199709079236342
1.2679607427358783
1.1571580971841469
1.0455965294026088
1.0084093401420962
0.8604195053298519
0.7860451268088265
0.7124296705176076
0.6380552919965823
0.4900654571843381
0.4528782679238254
0.34131670014228743
0.3048884331115812
0.23051405459055588
0.11895248680901789
0.045337030517798964
0.045337030517798964
0.045337030517798964
-0.066224537263739
0.008149841257286307
0.08252421977831162
0.1933268653300432
0.2677012438510685
0.3048884331115812
0.4900654571843381
0.563680913475557
0.563680913475557
0.6380552919965823
0.7860451268088265
0.8976066945903646
0.9347938838508772
1.0455965294026088
1.193586364214853
1.3423351212569037
1.3423351212569037
1.4159505775481227
1.4159505775481227
1.4903249560691478
1.6018865238506859
1.6383147908813922
1.6018865238506859
1.5646993345901732
1.5646993345901732
1.4903249560691478
1.4531377668086352
1.2307735534753657
1.1199709079236342
1.0827837186631215
1.0827837186631215
0.8976066945903646
0.8232323160693392
0.675242481257095
0.7496168597781203
0.5272526464448507
0.5272526464448507
0.4900654571843381
0.3785038894028001
0.3048884331115812
0.2677012438510685
0.34131670014228743
0.4900654571843381
0.6008681027360697
0.4900654571843381
0.8604195053298519
0.8976066945903646
0.9719810731113898
1.0084093401420962
1.1571580971841469
1.2307735534753657
1.3423351212569037
1.2679607427358783
1.4531377668086352
1.5646993345901732
1.6018865238506859
1.4903249560691478
1.2679607427358783
1.2307735534753657
1.1199709079236342
1.1571580971841469
0.8976066945903646
1.0455965294026088
0.7124296705176076
0.675242481257095
0.7496168597781203
0.675242481257095
0.4900654571843381
0.2677012438510685
0.3048884331115812
0.563680913475557
0.6008681027360697
0.8232323160693392
0.9347938838508772
1.0827837186631215
1.1199709079236342
1.2679607427358783
1.6755019801419049
1.5275121453296605
1.6755019801419049
1.5275121453296605
1.7126891694024176
1.7126891694024176
1.5275121453296605
1.6018865238506859
1.4531377668086352
1.2307735534753657
1.1199709079236342
1.0455965294026088
0.8232323160693392
0.7860451268088265
0.6008681027360697
0.5272526464448507
0.3785038894028001
0.34131670014228743
0.1933268653300432
0.11895248680901789
-0.02903734800322635
-0.17702718281547059
-0.10341172652425167
-0.17702718281547059
-0.13983999355495794
-0.066224537263739
0.11895248680901789
0.34131670014228743
0.3785038894028001
0.6380552919965823
0.563680913475557
0.7124296705176076
0.8976066945903646
0.8604195053298519
1.0827837186631215
1.0084093401420962
1.0084093401420962
1.1199709079236342
1.2679607427358783
1.4159505775481227
1.3423351212569037
1.3795223105174164
1.4159505775481227
1.4531377668086352
1.3423351212569037
1.5275121453296605
1.4159505775481227
1.2307735534753657
1.2307735534753657
1.0084093401420962
0.7496168597781203
0.6008681027360697
0.6008681027360697
0.4528782679238254
0.23051405459055588
0.1933268653300432
0.08252421977831162
0.08252421977831162
0.008149841257286307
0.008149841257286307
-0.066224537263739
-0.17702718281547059
0.008149841257286307
-0.13983999355495794
-0.17702718281547059
-0.10341172652425167
-0.13983999355495794
-0.02903734800322635
0.15613967606953055
0.11895248680901789
0.34131670014228743
0.4900654571843381
0.6008681027360697
0.7496168597781203
0.8604195053298519
0.8976066945903646
0.8976066945903646
1.0827837186631215
0.9347938838508772
0.9719810731113898
0.7496168597781203
0.7496168597781203
0.7496168597781203
0.8976066945903646
0.8604195053298519
0.8604195053298519
0.9347938838508772
0.7496168597781203
0.7124296705176076
0.7496168597781203
0.7860451268088265
0.8604195053298519
0.7860451268088265
0.675242481257095
0.8232323160693392
0.8604195053298519
0.7496168597781203
0.7124296705176076
0.7496168597781203
0.8232323160693392
0.8232323160693392
0.675242481257095
0.7860451268088265
0.8604195053298519
0.7860451268088265
0.7124296705176076
0.7496168597781203
0.8604195053298519
0.8604195053298519
0.7860451268088265
0.675242481257095
0.7860451268088265
0.8604195053298519
0.7124296705176076
0.7496168597781203
0.7860451268088265
0.8232323160693392
0.7860451268088265
0.7496168597781203
0.7496168597781203
0.7860451268088265
0.8976066945903646
0.8232323160693392
0.7860451268088265
0.7860451268088265
0.7860451268088265
0.7124296705176076
0.8604195053298519
0.7124296705176076
0.7496168597781203
0.7496168597781203
0.7860451268088265
0.8604195053298519
0.9347938838508772
0.7860451268088265
0.7124296705176076
0.7860451268088265
0.8976066945903646
0.8604195053298519
0.8604195053298519
0.7124296705176076
0.7496168597781203
0.8232323160693392
0.8604195053298519
0.7496168597781203
0.7124296705176076
0.7496168597781203
0.8604195053298519
0.7860451268088265
0.8232323160693392
0.7860451268088265
0.8232323160693392
0.8604195053298519
0.8232323160693392
0.7496168597781203
0.7124296705176076
0.7860451268088265
0.8232323160693392
0.7860451268088265
0.8604195053298519
0.7124296705176076
0.8976066945903646
0.8232323160693392
0.7124296705176076
0.7496168597781203
0.7496168597781203
0.8232323160693392
0.8232323160693392
0.8976066945903646
0.7860451268088265
0.8232323160693392
0.7860451268088265
0.675242481257095
0.7124296705176076
0.8604195053298519
0.9347938838508772
0.8232323160693392
0.7496168597781203
0.7496168597781203
0.7124296705176076
0.7496168597781203
0.675242481257095
0.7124296705176076
0.7860451268088265
0.7496168597781203
0.8232323160693392
0.7496168597781203
0.8232323160693392
0.7860451268088265
0.7124296705176076
0.7124296705176076
0.7860451268088265
0.675242481257095
0.7496168597781203
0.8232323160693392
0.8976066945903646
0.8232323160693392
0.7496168597781203
0.7496168597781203
0.7124296705176076
0.7496168597781203
0.8232323160693392
0.8976066945903646
0.7496168597781203
0.8604195053298519
0.7860451268088265
0.7860451268088265
0.8232323160693392
0.8232323160693392
0.8604195053298519
0.7124296705176076
0.7496168597781203
0.7496168597781203
0.8232323160693392
0.7860451268088265
0.7496168597781203
0.7496168597781203
0.7124296705176076
0.7496168597781203
0.7496168597781203
0.7860451268088265
0.8232323160693392
0.8604195053298519
0.8604195053298519
0.7124296705176076
0.8976066945903646
0.8232323160693392
0.8232323160693392
0.7860451268088265
0.8604195053298519
0.8976066945903646
0.8604195053298519
0.8604195053298519
0.8232323160693392
0.7860451268088265
0.8604195053298519
0.7860451268088265
0.7860451268088265
0.8604195053298519
0.7496168597781203
0.8976066945903646
0.7124296705176076
0.675242481257095
0.8232323160693392
0.8604195053298519
0.8232323160693392
0.8232323160693392
0.675242481257095
0.7124296705176076
0.7124296705176076
0.7124296705176076
0.7860451268088265
0.7124296705176076
0.7496168597781203
0.7496168597781203
0.8604195053298519
0.7124296705176076
0.7496168597781203
0.7496168597781203
0.8232323160693392
0.7496168597781203
0.7860451268088265
0.7496168597781203
0.7860451268088265
0.8232323160693392
0.7860451268088265
0.7124296705176076
0.8232323160693392
0.8232323160693392
0.8232323160693392
0.8604195053298519
0.7124296705176076
0.7860451268088265
0.7496168597781203
0.7496168597781203
0.8232323160693392
0.7124296705176076
0.7496168597781203
0.9347938838508772
0.8232323160693392
0.7124296705176076
0.7860451268088265
0.7496168597781203
0.8976066945903646
0.7496168597781203
0.8232323160693392
0.7124296705176076
0.7860451268088265
0.7496168597781203
0.7124296705176076
0.8232323160693392
0.8604195053298519
0.7496168597781203
0.7124296705176076
0.7860451268088265
0.7860451268088265
0.7860451268088265
0.8232323160693392
0.8232323160693392
0.7860451268088265
0.7496168597781203
0.7860451268088265
0.7860451268088265
0.7496168597781203
